# Time (s), Wind Speed (m/s), Blade Displacement (m), Tower Displacement (m)
0.000000	24.087000	0.000000	0.000000
0.010000	24.139000	0.000302	0.000000
0.020000	24.193000	0.001207	0.000000
0.030000	24.249000	0.002713	0.000001
0.040000	24.304000	0.004818	0.000002
0.050000	24.359000	0.007519	0.000006
0.060000	24.415000	0.010811	0.000012
0.070000	24.474000	0.014689	0.000021
0.080000	24.539000	0.019147	0.000036
0.090000	24.612000	0.024180	0.000056
0.100000	24.696000	0.029782	0.000085
0.110000	24.791000	0.035946	0.000123
0.120000	24.897000	0.042666	0.000173
0.130000	25.009000	0.049935	0.000236
0.140000	25.123000	0.057744	0.000315
0.150000	25.231000	0.066085	0.000413
0.160000	25.325000	0.074951	0.000531
0.170000	25.398000	0.084336	0.000673
0.180000	25.441000	0.094225	0.000840
0.190000	25.449000	0.104600	0.001038
0.200000	25.420000	0.115444	0.001267
0.210000	25.355000	0.126736	0.001532
0.220000	25.258000	0.138457	0.001836
0.230000	25.138000	0.150584	0.002182
0.240000	25.004000	0.163097	0.002574
0.250000	24.871000	0.175971	0.003014
0.260000	24.751000	0.189182	0.003508
0.270000	24.659000	0.202706	0.004057
0.280000	24.605000	0.216517	0.004667
0.290000	24.600000	0.230587	0.005341
0.300000	24.647000	0.244891	0.006083
0.310000	24.749000	0.259417	0.006895
0.320000	24.901000	0.274153	0.007783
0.330000	25.098000	0.289091	0.008750
0.340000	25.330000	0.304221	0.009799
0.350000	25.585000	0.319532	0.010936
0.360000	25.851000	0.335014	0.012163
0.370000	26.115000	0.350657	0.013484
0.380000	26.368000	0.366451	0.014903
0.390000	26.599000	0.382384	0.016424
0.400000	26.802000	0.398445	0.018050
0.410000	26.972000	0.414624	0.019784
0.420000	27.108000	0.430909	0.021630
0.430000	27.208000	0.447289	0.023591
0.440000	27.273000	0.463751	0.025670
0.450000	27.304000	0.480284	0.027871
0.460000	27.301000	0.496876	0.030196
0.470000	27.263000	0.513515	0.032649
0.480000	27.191000	0.530183	0.035232
0.490000	27.084000	0.546844	0.037947
0.500000	26.940000	0.563464	0.040799
0.510000	26.759000	0.580010	0.043789
0.520000	26.543000	0.596450	0.046921
0.530000	26.294000	0.612755	0.050197
0.540000	26.020000	0.628894	0.053618
0.550000	25.729000	0.644842	0.057187
0.560000	25.432000	0.660571	0.060905
0.570000	25.142000	0.676057	0.064774
0.580000	24.874000	0.691277	0.068795
0.590000	24.642000	0.706208	0.072969
0.600000	24.459000	0.720831	0.077296
0.610000	24.334000	0.735126	0.081778
0.620000	24.275000	0.749076	0.086415
0.630000	24.282000	0.762665	0.091206
0.640000	24.352000	0.775876	0.096152
0.650000	24.476000	0.788698	0.101252
0.660000	24.642000	0.801117	0.106505
0.670000	24.834000	0.813124	0.111911
0.680000	25.034000	0.824708	0.117470
0.690000	25.226000	0.835875	0.123178
0.700000	25.394000	0.846651	0.129034
0.710000	25.525000	0.857038	0.135036
0.720000	25.612000	0.867036	0.141181
0.730000	25.653000	0.876646	0.147468
0.740000	25.648000	0.885867	0.153892
0.750000	25.607000	0.894701	0.160453
0.760000	25.537000	0.903148	0.167146
0.770000	25.453000	0.911209	0.173968
0.780000	25.366000	0.918886	0.180915
0.790000	25.289000	0.926179	0.187984
0.800000	25.229000	0.933090	0.195170
0.810000	25.193000	0.939622	0.202470
0.820000	25.181000	0.945776	0.209878
0.830000	25.190000	0.951554	0.217391
0.840000	25.214000	0.956958	0.225001
0.850000	25.241000	0.961991	0.232706
0.860000	25.262000	0.966656	0.240498
0.870000	25.267000	0.970956	0.248373
0.880000	25.245000	0.974894	0.256324
0.890000	25.191000	0.978473	0.264344
0.900000	25.104000	0.981696	0.272429
0.910000	24.985000	0.984568	0.280570
0.920000	24.841000	0.987093	0.288760
0.930000	24.682000	0.989270	0.296995
0.940000	24.519000	0.991103	0.305267
0.950000	24.365000	0.992596	0.313569
0.960000	24.232000	0.993758	0.321895
0.970000	24.129000	0.994597	0.330237
0.980000	24.062000	0.995122	0.338588
0.990000	24.035000	0.995343	0.346941
1.000000	24.044000	0.995271	0.355288
1.010000	24.084000	0.994918	0.363621
1.020000	24.147000	0.994298	0.371933
1.030000	24.221000	0.993424	0.380217
1.040000	24.297000	0.992311	0.388465
1.050000	24.365000	0.990976	0.396668
1.060000	24.418000	0.989435	0.404820
1.070000	24.453000	0.987705	0.412911
1.080000	24.470000	0.985806	0.420935
1.090000	24.473000	0.983758	0.428883
1.100000	24.471000	0.981580	0.436747
1.110000	24.474000	0.979295	0.444519
1.120000	24.491000	0.976914	0.452191
1.130000	24.532000	0.974432	0.459757
1.140000	24.605000	0.971876	0.467208
1.150000	24.714000	0.969269	0.474537
1.160000	24.859000	0.966634	0.481737
1.170000	25.032000	0.963995	0.488800
1.180000	25.226000	0.961373	0.495719
1.190000	25.427000	0.958786	0.502486
1.200000	25.619000	0.956255	0.509095
1.210000	25.787000	0.953797	0.515540
1.220000	25.915000	0.951428	0.521813
1.230000	25.991000	0.949163	0.527909
1.240000	26.007000	0.947017	0.533821
1.250000	25.960000	0.945002	0.539544
1.260000	25.853000	0.943130	0.545071
1.270000	25.694000	0.941411	0.550397
1.280000	25.493000	0.939855	0.555516
1.290000	25.266000	0.938469	0.560424
1.300000	25.030000	0.937237	0.565115
1.310000	24.799000	0.936140	0.569586
1.320000	24.588000	0.935178	0.573832
1.330000	24.408000	0.934352	0.577848
1.340000	24.263000	0.933659	0.581631
1.350000	24.157000	0.933099	0.585177
1.360000	24.084000	0.932673	0.588483
1.370000	24.038000	0.932378	0.591545
1.380000	24.009000	0.932215	0.594361
1.390000	23.985000	0.932182	0.596928
1.400000	23.954000	0.932278	0.599244
1.410000	23.906000	0.932503	0.601307
1.420000	23.833000	0.932857	0.603115
1.430000	23.733000	0.933337	0.604666
1.440000	23.603000	0.933942	0.605961
1.450000	23.450000	0.934673	0.606997
1.460000	23.278000	0.935524	0.607775
1.470000	23.097000	0.936474	0.608293
1.480000	22.916000	0.937513	0.608553
1.490000	22.746000	0.938634	0.608552
1.500000	22.595000	0.939829	0.608293
1.510000	22.467000	0.941089	0.607776
1.520000	22.367000	0.942409	0.607001
1.530000	22.294000	0.943779	0.605969
1.540000	22.244000	0.945193	0.604682
1.550000	22.213000	0.946642	0.603141
1.560000	22.193000	0.948120	0.601348
1.570000	22.177000	0.949619	0.599305
1.580000	22.159000	0.951131	0.597015
1.590000	22.132000	0.952650	0.594479
1.600000	22.094000	0.954167	0.591702
1.610000	22.044000	0.955675	0.588685
1.620000	21.984000	0.957167	0.585433
1.630000	21.916000	0.958636	0.581949
1.640000	21.848000	0.960073	0.578236
1.650000	21.785000	0.961473	0.574299
1.660000	21.733000	0.962828	0.570143
1.670000	21.697000	0.964123	0.565770
1.680000	21.681000	0.965347	0.561185
1.690000	21.688000	0.966494	0.556392
1.700000	21.715000	0.967555	0.551396
1.710000	21.762000	0.968525	0.546203
1.720000	21.824000	0.969397	0.540817
1.730000	21.897000	0.970163	0.535243
1.740000	21.974000	0.970819	0.529487
1.750000	22.050000	0.971356	0.523554
1.760000	22.122000	0.971769	0.517449
1.770000	22.186000	0.972052	0.511178
1.780000	22.241000	0.972198	0.504747
1.790000	22.286000	0.972202	0.498162
1.800000	22.323000	0.972056	0.491428
1.810000	22.355000	0.971757	0.484551
1.820000	22.382000	0.971297	0.477539
1.830000	22.408000	0.970672	0.470396
1.840000	22.433000	0.969875	0.463129
1.850000	22.459000	0.968902	0.455746
1.860000	22.483000	0.967746	0.448251
1.870000	22.504000	0.966401	0.440652
1.880000	22.519000	0.964858	0.432954
1.890000	22.525000	0.963106	0.425163
1.900000	22.518000	0.961136	0.417286
1.910000	22.496000	0.958939	0.409330
1.920000	22.457000	0.956508	0.401303
1.930000	22.401000	0.953833	0.393209
1.940000	22.330000	0.950907	0.385057
1.950000	22.246000	0.947723	0.376853
1.960000	22.155000	0.944274	0.368602
1.970000	22.061000	0.940551	0.360312
1.980000	21.969000	0.936549	0.351988
1.990000	21.884000	0.932262	0.343637
2.000000	21.811000	0.927682	0.335265
2.010000	21.751000	0.922805	0.326878
2.020000	21.704000	0.917625	0.318481
2.030000	21.670000	0.912137	0.310081
2.040000	21.645000	0.906336	0.301684
2.050000	21.625000	0.900217	0.293294
2.060000	21.605000	0.893777	0.284919
2.070000	21.580000	0.887010	0.276562
2.080000	21.544000	0.879914	0.268231
2.090000	21.495000	0.872485	0.259929
2.100000	21.431000	0.864720	0.251663
2.110000	21.350000	0.856616	0.243437
2.120000	21.256000	0.848171	0.235257
2.130000	21.152000	0.839382	0.227127
2.140000	21.042000	0.830248	0.219054
2.150000	20.932000	0.820767	0.211041
2.160000	20.827000	0.810937	0.203093
2.170000	20.731000	0.800759	0.195216
2.180000	20.650000	0.790232	0.187411
2.190000	20.585000	0.779365	0.179679
2.200000	20.538000	0.768160	0.172025
2.210000	20.507000	0.756623	0.164451
2.220000	20.492000	0.744759	0.156963
2.230000	20.488000	0.732574	0.149563
2.240000	20.493000	0.720075	0.142256
2.250000	20.503000	0.707269	0.135043
2.260000	20.514000	0.694164	0.127928
2.270000	20.525000	0.680769	0.120913
2.280000	20.534000	0.667092	0.114001
2.290000	20.538000	0.653143	0.107194
2.300000	20.539000	0.638932	0.100494
2.310000	20.535000	0.624470	0.093902
2.320000	20.528000	0.609768	0.087421
2.330000	20.518000	0.594838	0.081050
2.340000	20.503000	0.579693	0.074792
2.350000	20.484000	0.564346	0.068647
2.360000	20.460000	0.548810	0.062616
2.370000	20.430000	0.533100	0.056698
2.380000	20.392000	0.517231	0.050895
2.390000	20.347000	0.501218	0.045205
2.400000	20.294000	0.485077	0.039629
2.410000	20.237000	0.468824	0.034166
2.420000	20.178000	0.452478	0.028815
2.430000	20.122000	0.436056	0.023574
2.440000	20.076000	0.419572	0.018444
2.450000	20.046000	0.403016	0.013425
2.460000	20.041000	0.386401	0.008518
2.470000	20.067000	0.369752	0.003722
2.480000	20.129000	0.353094	-0.000964
2.490000	20.231000	0.336451	-0.005541
2.500000	20.374000	0.319847	-0.010008
2.510000	20.555000	0.303306	-0.014369
2.520000	20.768000	0.286850	-0.018623
2.530000	21.004000	0.270502	-0.022771
2.540000	21.252000	0.254286	-0.026816
2.550000	21.498000	0.238223	-0.030757
2.560000	21.729000	0.222335	-0.034597
2.570000	21.931000	0.206643	-0.038336
2.580000	22.093000	0.191170	-0.041977
2.590000	22.207000	0.175935	-0.045521
2.600000	22.269000	0.160960	-0.048969
2.610000	22.277000	0.146264	-0.052323
2.620000	22.237000	0.131868	-0.055584
2.630000	22.155000	0.117791	-0.058756
2.640000	22.042000	0.104052	-0.061838
2.650000	21.911000	0.090671	-0.064834
2.660000	21.775000	0.077666	-0.067746
2.670000	21.647000	0.065054	-0.070575
2.680000	21.538000	0.052816	-0.073321
2.690000	21.456000	0.040947	-0.075985
2.700000	21.406000	0.029455	-0.078567
2.710000	21.388000	0.018352	-0.081070
2.720000	21.401000	0.007647	-0.083495
2.730000	21.439000	-0.002653	-0.085842
2.740000	21.494000	-0.012537	-0.088113
2.750000	21.556000	-0.021999	-0.090309
2.760000	21.618000	-0.031031	-0.092431
2.770000	21.669000	-0.039626	-0.094480
2.780000	21.705000	-0.047777	-0.096455
2.790000	21.721000	-0.055478	-0.098359
2.800000	21.716000	-0.062722	-0.100192
2.810000	21.692000	-0.069506	-0.101953
2.820000	21.652000	-0.075823	-0.103645
2.830000	21.603000	-0.081669	-0.105266
2.840000	21.552000	-0.087039	-0.106818
2.850000	21.506000	-0.091931	-0.108300
2.860000	21.471000	-0.096341	-0.109714
2.870000	21.454000	-0.100267	-0.111058
2.880000	21.456000	-0.103704	-0.112333
2.890000	21.482000	-0.106653	-0.113538
2.900000	21.529000	-0.109111	-0.114675
2.910000	21.596000	-0.111088	-0.115741
2.920000	21.680000	-0.112583	-0.116736
2.930000	21.778000	-0.113589	-0.117659
2.940000	21.883000	-0.114104	-0.118512
2.950000	21.994000	-0.114122	-0.119292
2.960000	22.105000	-0.113642	-0.119999
2.970000	22.216000	-0.112662	-0.120634
2.980000	22.323000	-0.111182	-0.121194
2.990000	22.427000	-0.109201	-0.121679
3.000000	22.526000	-0.106722	-0.122088
3.010000	22.619000	-0.103747	-0.122420
3.020000	22.706000	-0.100279	-0.122673
3.030000	22.785000	-0.096323	-0.122847
3.040000	22.854000	-0.091885	-0.122941
3.050000	22.911000	-0.086970	-0.122951
3.060000	22.952000	-0.081586	-0.122878
3.070000	22.973000	-0.075742	-0.122719
3.080000	22.974000	-0.069447	-0.122472
3.090000	22.951000	-0.062711	-0.122136
3.100000	22.905000	-0.055546	-0.121708
3.110000	22.837000	-0.047965	-0.121187
3.120000	22.750000	-0.039980	-0.120570
3.130000	22.650000	-0.031606	-0.119856
3.140000	22.544000	-0.022859	-0.119041
3.150000	22.439000	-0.013764	-0.118125
3.160000	22.345000	-0.004339	-0.117106
3.170000	22.268000	0.005400	-0.115983
3.180000	22.215000	0.015442	-0.114752
3.190000	22.192000	0.025771	-0.113412
3.200000	22.199000	0.036375	-0.111961
3.210000	22.237000	0.047240	-0.110396
3.220000	22.300000	0.058351	-0.108716
3.230000	22.383000	0.069696	-0.106918
3.240000	22.477000	0.081261	-0.105001
3.250000	22.571000	0.093033	-0.102963
3.260000	22.657000	0.104997	-0.100802
3.270000	22.724000	0.117141	-0.098517
3.280000	22.764000	0.129451	-0.096105
3.290000	22.773000	0.141913	-0.093566
3.300000	22.747000	0.154514	-0.090897
3.310000	22.689000	0.167242	-0.088098
3.320000	22.602000	0.180082	-0.085166
3.330000	22.493000	0.193021	-0.082101
3.340000	22.371000	0.206046	-0.078902
3.350000	22.247000	0.219144	-0.075566
3.360000	22.130000	0.232301	-0.072094
3.370000	22.030000	0.245501	-0.068483
3.380000	21.956000	0.258715	-0.064736
3.390000	21.912000	0.271927	-0.060852
3.400000	21.902000	0.285125	-0.056828
3.410000	21.925000	0.298294	-0.052664
3.420000	21.978000	0.311424	-0.048360
3.430000	22.056000	0.324501	-0.043915
3.440000	22.151000	0.337514	-0.039328
3.450000	22.255000	0.350453	-0.034599
3.460000	22.358000	0.363306	-0.029730
3.470000	22.452000	0.376063	-0.024719
3.480000	22.529000	0.388714	-0.019567
3.490000	22.583000	0.401249	-0.014276
3.500000	22.610000	0.413660	-0.008846
3.510000	22.607000	0.425936	-0.003278
3.520000	22.574000	0.438072	0.002427
3.530000	22.513000	0.450057	0.008266
3.540000	22.428000	0.461885	0.014239
3.550000	22.323000	0.473548	0.020342
3.560000	22.205000	0.485041	0.026575
3.570000	22.081000	0.496356	0.032934
3.580000	21.956000	0.507487	0.039417
3.590000	21.838000	0.518430	0.046021
3.600000	21.735000	0.529178	0.052743
3.610000	21.651000	0.539729	0.059580
3.620000	21.592000	0.550062	0.066530
3.630000	21.564000	0.560157	0.073588
3.640000	21.568000	0.570014	0.080753
3.650000	21.607000	0.579635	0.088020
3.660000	21.681000	0.589024	0.095387
3.670000	21.788000	0.598183	0.102851
3.680000	21.924000	0.607116	0.110407
3.690000	22.087000	0.615826	0.118052
3.700000	22.267000	0.624318	0.125782
3.710000	22.459000	0.632596	0.133592
3.720000	22.654000	0.640664	0.141478
3.730000	22.842000	0.648528	0.149436
3.740000	23.016000	0.656193	0.157462
3.750000	23.168000	0.663665	0.165549
3.760000	23.291000	0.670950	0.173694
3.770000	23.380000	0.678055	0.181890
3.780000	23.433000	0.684986	0.190133
3.790000	23.449000	0.691751	0.198418
3.800000	23.430000	0.698358	0.206737
3.810000	23.379000	0.704814	0.215086
3.820000	23.301000	0.711128	0.223459
3.830000	23.202000	0.717308	0.231848
3.840000	23.088000	0.723363	0.240249
3.850000	22.967000	0.729303	0.248654
3.860000	22.842000	0.735125	0.257057
3.870000	22.720000	0.740801	0.265456
3.880000	22.602000	0.746328	0.273844
3.890000	22.492000	0.751707	0.282216
3.900000	22.390000	0.756935	0.290565
3.910000	22.296000	0.762015	0.298885
3.920000	22.209000	0.766946	0.307171
3.930000	22.130000	0.771730	0.315416
3.940000	22.056000	0.776368	0.323615
3.950000	21.989000	0.780864	0.331761
3.960000	21.929000	0.785219	0.339849
3.970000	21.878000	0.789438	0.347873
3.980000	21.838000	0.793524	0.355826
3.990000	21.812000	0.797481	0.363704
4.000000	21.801000	0.801316	0.371500
4.010000	21.808000	0.805033	0.379208
4.020000	21.833000	0.808639	0.386822
4.030000	21.875000	0.812140	0.394338
4.040000	21.933000	0.815544	0.401748
4.050000	22.002000	0.818858	0.409048
4.060000	22.077000	0.822090	0.416231
4.070000	22.150000	0.825249	0.423292
4.080000	22.215000	0.828345	0.430226
4.090000	22.265000	0.831390	0.437026
4.100000	22.293000	0.834393	0.443690
4.110000	22.293000	0.837356	0.450212
4.120000	22.263000	0.840282	0.456587
4.130000	22.202000	0.843173	0.462808
4.140000	22.111000	0.846030	0.468872
4.150000	21.994000	0.848855	0.474774
4.160000	21.857000	0.851648	0.480509
4.170000	21.706000	0.854410	0.486072
4.180000	21.550000	0.857141	0.491460
4.190000	21.397000	0.859841	0.496668
4.200000	21.254000	0.862509	0.501692
4.210000	21.126000	0.865145	0.506530
4.220000	21.019000	0.867747	0.511177
4.230000	20.935000	0.870313	0.515630
4.240000	20.874000	0.872842	0.519886
4.250000	20.836000	0.875332	0.523942
4.260000	20.817000	0.877779	0.527796
4.270000	20.816000	0.880180	0.531445
4.280000	20.828000	0.882533	0.534887
4.290000	20.849000	0.884833	0.538119
4.300000	20.877000	0.887077	0.541140
4.310000	20.908000	0.889277	0.543947
4.320000	20.940000	0.891442	0.546539
4.330000	20.972000	0.893575	0.548912
4.340000	21.003000	0.895679	0.551067
4.350000	21.030000	0.897755	0.553001
4.360000	21.052000	0.899805	0.554713
4.370000	21.068000	0.901828	0.556203
4.380000	21.073000	0.903824	0.557469
4.390000	21.064000	0.905790	0.558511
4.400000	21.036000	0.907723	0.559328
4.410000	20.986000	0.909621	0.559921
4.420000	20.909000	0.911479	0.560289
4.430000	20.803000	0.913290	0.560434
4.440000	20.666000	0.915050	0.560354
4.450000	20.500000	0.916750	0.560052
4.460000	20.307000	0.918383	0.559527
4.470000	20.095000	0.919940	0.558781
4.480000	19.872000	0.921411	0.557816
4.490000	19.649000	0.922784	0.556633
4.500000	19.439000	0.924049	0.555233
4.510000	19.253000	0.925184	0.553618
4.520000	19.104000	0.926172	0.551789
4.530000	19.002000	0.927012	0.549749
4.540000	18.955000	0.927701	0.547500
4.550000	18.967000	0.928238	0.545043
4.560000	19.039000	0.928622	0.542382
4.570000	19.166000	0.928853	0.539518
4.580000	19.341000	0.928930	0.536456
4.590000	19.552000	0.928855	0.533196
4.600000	19.786000	0.928629	0.529743
4.610000	20.028000	0.928254	0.526099
4.620000	20.261000	0.927732	0.522268
4.630000	20.472000	0.927066	0.518252
4.640000	20.647000	0.926261	0.514056
4.650000	20.777000	0.925319	0.509683
4.660000	20.856000	0.924246	0.505135
4.670000	20.881000	0.923047	0.500418
4.680000	20.855000	0.921728	0.495535
4.690000	20.782000	0.920288	0.490490
4.700000	20.671000	0.918703	0.485287
4.710000	20.532000	0.916962	0.479931
4.720000	20.379000	0.915054	0.474425
4.730000	20.222000	0.912969	0.468774
4.740000	20.073000	0.910698	0.462984
4.750000	19.944000	0.908233	0.457057
4.760000	19.842000	0.905567	0.450999
4.770000	19.774000	0.902694	0.444815
4.780000	19.742000	0.899608	0.438508
4.790000	19.749000	0.896305	0.432084
4.800000	19.791000	0.892782	0.425548
4.810000	19.865000	0.889036	0.418904
4.820000	19.965000	0.885065	0.412157
4.830000	20.083000	0.880869	0.405313
4.840000	20.211000	0.876447	0.398375
4.850000	20.341000	0.871800	0.391349
4.860000	20.462000	0.866931	0.384240
4.870000	20.568000	0.861844	0.377053
4.880000	20.651000	0.856552	0.369793
4.890000	20.706000	0.851055	0.362464
4.900000	20.729000	0.845348	0.355072
4.910000	20.719000	0.839428	0.347621
4.920000	20.677000	0.833289	0.340116
4.930000	20.607000	0.826929	0.332563
4.940000	20.513000	0.820345	0.324965
4.950000	20.403000	0.813535	0.317329
4.960000	20.286000	0.806496	0.309658
4.970000	20.172000	0.799227	0.301957
4.980000	20.071000	0.791727	0.294231
4.990000	19.992000	0.783995	0.286485
5.000000	19.943000	0.776031	0.278723
5.010000	19.931000	0.767836	0.270950
5.020000	19.958000	0.759409	0.263169
5.030000	20.025000	0.750751	0.255386
5.040000	20.129000	0.741865	0.247606
5.050000	20.263000	0.732753	0.239831
5.060000	20.420000	0.723416	0.232067
5.070000	20.589000	0.713857	0.224318
5.080000	20.760000	0.704086	0.216588
5.090000	20.921000	0.694126	0.208880
5.100000	21.062000	0.683990	0.201198
5.110000	21.176000	0.673686	0.193547
5.120000	21.258000	0.663223	0.185929
5.130000	21.305000	0.652609	0.178349
5.140000	21.319000	0.641852	0.170810
5.150000	21.305000	0.630960	0.163315
5.160000	21.268000	0.619941	0.155869
5.170000	21.217000	0.608802	0.148474
5.180000	21.161000	0.597550	0.141133
5.190000	21.108000	0.586192	0.133850
5.200000	21.065000	0.574735	0.126628
5.210000	21.037000	0.563185	0.119470
5.220000	21.024000	0.551548	0.112378
5.230000	21.027000	0.539829	0.105355
5.240000	21.042000	0.528036	0.098404
5.250000	21.062000	0.516171	0.091528
5.260000	21.081000	0.504242	0.084729
5.270000	21.091000	0.492252	0.078010
5.280000	21.086000	0.480206	0.071372
5.290000	21.061000	0.468109	0.064819
5.300000	21.012000	0.455965	0.058351
5.310000	20.941000	0.443776	0.051972
5.320000	20.850000	0.431547	0.045683
5.330000	20.747000	0.419282	0.039487
