# Time (s), Wind Speed (m/s), Blade Displacement (m), Tower Displacement (m)
0.000000	6.266000	0.000000	0.000000
0.010000	6.275000	0.000219	0.000000
0.020000	6.285000	0.000873	0.000000
0.030000	6.295000	0.001956	0.000001
0.040000	6.304000	0.003461	0.000002
0.050000	6.314000	0.005383	0.000004
0.060000	6.324000	0.007714	0.000008
0.070000	6.334000	0.010445	0.000015
0.080000	6.346000	0.013571	0.000026
0.090000	6.359000	0.017081	0.000040
0.100000	6.374000	0.020969	0.000061
0.110000	6.391000	0.025226	0.000088
0.120000	6.409000	0.029842	0.000123
0.130000	6.429000	0.034810	0.000167
0.140000	6.449000	0.040119	0.000223
0.150000	6.468000	0.045762	0.000291
0.160000	6.485000	0.051729	0.000374
0.170000	6.498000	0.058010	0.000473
0.180000	6.505000	0.064594	0.000590
0.190000	6.507000	0.071467	0.000727
0.200000	6.502000	0.078615	0.000886
0.210000	6.490000	0.086024	0.001069
0.220000	6.473000	0.093680	0.001278
0.230000	6.452000	0.101568	0.001516
0.240000	6.428000	0.109671	0.001785
0.250000	6.404000	0.117976	0.002086
0.260000	6.383000	0.126465	0.002423
0.270000	6.367000	0.135123	0.002798
0.280000	6.357000	0.143932	0.003212
0.290000	6.356000	0.152875	0.003669
0.300000	6.364000	0.161939	0.004170
0.310000	6.382000	0.171115	0.004718
0.320000	6.409000	0.180392	0.005316
0.330000	6.444000	0.189761	0.005965
0.340000	6.485000	0.199214	0.006669
0.350000	6.530000	0.208741	0.007429
0.360000	6.577000	0.218334	0.008249
0.370000	6.624000	0.227984	0.009129
0.380000	6.669000	0.237684	0.010072
0.390000	6.710000	0.247424	0.011081
0.400000	6.745000	0.257196	0.012158
0.410000	6.776000	0.266994	0.013303
0.420000	6.800000	0.276808	0.014521
0.430000	6.817000	0.286633	0.015811
0.440000	6.829000	0.296460	0.017177
0.450000	6.834000	0.306282	0.018619
0.460000	6.833000	0.316093	0.020140
0.470000	6.826000	0.325886	0.021741
0.480000	6.814000	0.335643	0.023423
0.490000	6.794000	0.345347	0.025188
0.500000	6.769000	0.354981	0.027039
0.510000	6.736000	0.364529	0.028975
0.520000	6.698000	0.373978	0.030999
0.530000	6.654000	0.383311	0.033112
0.540000	6.605000	0.392517	0.035315
0.550000	6.553000	0.401581	0.037608
0.560000	6.500000	0.410493	0.039992
0.570000	6.449000	0.419241	0.042468
0.580000	6.401000	0.427814	0.045036
0.590000	6.360000	0.436202	0.047697
0.600000	6.327000	0.444397	0.050450
0.610000	6.305000	0.452391	0.053296
0.620000	6.294000	0.460175	0.056235
0.630000	6.295000	0.467743	0.059265
0.640000	6.307000	0.475090	0.062387
0.650000	6.329000	0.482209	0.065601
0.660000	6.358000	0.489097	0.068905
0.670000	6.392000	0.495750	0.072298
0.680000	6.428000	0.502178	0.075779
0.690000	6.461000	0.508389	0.079347
0.700000	6.491000	0.514384	0.083001
0.710000	6.514000	0.520167	0.086739
0.720000	6.529000	0.525738	0.090560
0.730000	6.536000	0.531102	0.094462
0.740000	6.535000	0.536259	0.098443
0.750000	6.528000	0.541212	0.102502
0.760000	6.515000	0.545964	0.106636
0.770000	6.500000	0.550518	0.110843
0.780000	6.484000	0.554876	0.115120
0.790000	6.470000	0.559040	0.119466
0.800000	6.460000	0.563015	0.123878
0.810000	6.453000	0.566801	0.128353
0.820000	6.451000	0.570403	0.132888
0.830000	6.452000	0.573823	0.137481
0.840000	6.456000	0.577065	0.142127
0.850000	6.461000	0.580130	0.146824
0.860000	6.464000	0.583024	0.151568
0.870000	6.465000	0.585748	0.156356
0.880000	6.460000	0.588305	0.161185
0.890000	6.451000	0.590701	0.166049
0.900000	6.435000	0.592937	0.170947
0.910000	6.414000	0.595017	0.175872
0.920000	6.388000	0.596944	0.180821
0.930000	6.360000	0.598723	0.185791
0.940000	6.330000	0.600354	0.190777
0.950000	6.303000	0.601839	0.195777
0.960000	6.279000	0.603186	0.200786
0.970000	6.261000	0.604398	0.205800
0.980000	6.249000	0.605483	0.210814
0.990000	6.243000	0.606447	0.215826
1.000000	6.245000	0.607295	0.220830
1.010000	6.252000	0.608036	0.225822
1.020000	6.262000	0.608676	0.230798
1.030000	6.275000	0.609222	0.235753
1.040000	6.289000	0.609682	0.240684
1.050000	6.300000	0.610065	0.245586
1.060000	6.309000	0.610379	0.250455
1.070000	6.315000	0.610631	0.255287
1.080000	6.318000	0.610832	0.260077
1.090000	6.319000	0.610991	0.264820
1.100000	6.318000	0.611116	0.269513
1.110000	6.318000	0.611218	0.274151
1.120000	6.321000	0.611304	0.278730
1.130000	6.328000	0.611369	0.283246
1.140000	6.341000	0.611427	0.287696
1.150000	6.360000	0.611486	0.292075
1.160000	6.385000	0.611559	0.296378
1.170000	6.416000	0.611656	0.300603
1.180000	6.450000	0.611784	0.304745
1.190000	6.485000	0.611954	0.308801
1.200000	6.519000	0.612171	0.312767
1.210000	6.548000	0.612444	0.316639
1.220000	6.571000	0.612778	0.320415
1.230000	6.584000	0.613179	0.324090
1.240000	6.586000	0.613651	0.327662
1.250000	6.578000	0.614198	0.331128
1.260000	6.559000	0.614823	0.334485
1.270000	6.530000	0.615529	0.337729
1.280000	6.494000	0.616316	0.340859
1.290000	6.454000	0.617186	0.343872
1.300000	6.411000	0.618139	0.346764
1.310000	6.370000	0.619167	0.349535
1.320000	6.332000	0.620257	0.352181
1.330000	6.300000	0.621408	0.354702
1.340000	6.274000	0.622618	0.357094
1.350000	6.255000	0.623885	0.359356
1.360000	6.242000	0.625207	0.361486
1.370000	6.233000	0.626583	0.363483
1.380000	6.228000	0.628010	0.365346
1.390000	6.223000	0.629486	0.367073
1.400000	6.217000	0.631008	0.368663
1.410000	6.208000	0.632574	0.370115
1.420000	6.195000	0.634182	0.371429
1.430000	6.177000	0.635828	0.372603
1.440000	6.153000	0.637510	0.373638
1.450000	6.126000	0.639225	0.374532
1.460000	6.095000	0.640969	0.375287
1.470000	6.063000	0.642741	0.375900
1.480000	6.030000	0.644533	0.376374
1.490000	6.000000	0.646338	0.376707
1.500000	5.972000	0.648150	0.376900
1.510000	5.950000	0.649962	0.376954
1.520000	5.931000	0.651770	0.376869
1.530000	5.918000	0.653568	0.376645
1.540000	5.909000	0.655351	0.376283
1.550000	5.903000	0.657113	0.375785
1.560000	5.899000	0.658851	0.375151
1.570000	5.896000	0.660557	0.374382
1.580000	5.892000	0.662229	0.373479
1.590000	5.887000	0.663861	0.372444
1.600000	5.880000	0.665449	0.371278
1.610000	5.871000	0.666989	0.369982
1.620000	5.860000	0.668475	0.368559
1.630000	5.848000	0.669905	0.367009
1.640000	5.835000	0.671273	0.365336
1.650000	5.824000	0.672577	0.363540
1.660000	5.814000	0.673812	0.361623
1.670000	5.807000	0.674975	0.359589
1.680000	5.804000	0.676062	0.357440
1.690000	5.805000	0.677071	0.355177
1.700000	5.810000	0.677996	0.352803
1.710000	5.818000	0.678836	0.350322
1.720000	5.828000	0.679588	0.347735
1.730000	5.841000	0.680249	0.345045
1.740000	5.854000	0.680818	0.342255
1.750000	5.868000	0.681295	0.339367
1.760000	5.880000	0.681675	0.336383
1.770000	5.891000	0.681958	0.333307
1.780000	5.900000	0.682140	0.330142
1.790000	5.908000	0.682218	0.326890
1.800000	5.914000	0.682192	0.323554
1.810000	5.920000	0.682058	0.320138
1.820000	5.924000	0.681813	0.316645
1.830000	5.929000	0.681456	0.313077
1.840000	5.933000	0.680984	0.309437
1.850000	5.937000	0.680394	0.305729
1.860000	5.941000	0.679685	0.301956
1.870000	5.944000	0.678853	0.298120
1.880000	5.947000	0.677897	0.294225
1.890000	5.947000	0.676813	0.290275
1.900000	5.946000	0.675601	0.286271
1.910000	5.942000	0.674256	0.282219
1.920000	5.934000	0.672778	0.278119
1.930000	5.924000	0.671163	0.273977
1.940000	5.911000	0.669409	0.269795
1.950000	5.896000	0.667514	0.265576
1.960000	5.880000	0.665476	0.261325
1.970000	5.863000	0.663291	0.257043
1.980000	5.846000	0.660958	0.252735
1.990000	5.831000	0.658475	0.248404
2.000000	5.817000	0.655839	0.244053
2.010000	5.806000	0.653047	0.239685
2.020000	5.798000	0.650097	0.235305
2.030000	5.792000	0.646988	0.230915
2.040000	5.787000	0.643722	0.226517
2.050000	5.783000	0.640297	0.222111
2.060000	5.779000	0.636714	0.217702
2.070000	5.774000	0.632971	0.213294
2.080000	5.768000	0.629069	0.208887
2.090000	5.759000	0.625006	0.204487
2.100000	5.747000	0.620783	0.200096
2.110000	5.732000	0.616400	0.195717
2.120000	5.715000	0.611857	0.191351
2.130000	5.697000	0.607156	0.187003
2.140000	5.677000	0.602298	0.182675
2.150000	5.657000	0.597284	0.178369
2.160000	5.638000	0.592115	0.174087
2.170000	5.621000	0.586794	0.169833
2.180000	5.606000	0.581323	0.165607
2.190000	5.594000	0.575704	0.161413
2.200000	5.586000	0.569941	0.157252
2.210000	5.580000	0.564036	0.153126
2.220000	5.577000	0.557992	0.149037
2.230000	5.576000	0.551813	0.144988
2.240000	5.577000	0.545503	0.140978
2.250000	5.578000	0.539067	0.137011
2.260000	5.580000	0.532508	0.133088
2.270000	5.581000	0.525831	0.129210
2.280000	5.583000	0.519042	0.125379
2.290000	5.583000	0.512145	0.121595
2.300000	5.583000	0.505145	0.117860
2.310000	5.582000	0.498050	0.114176
2.320000	5.581000	0.490865	0.110542
2.330000	5.579000	0.483595	0.106960
2.340000	5.576000	0.476249	0.103431
2.350000	5.572000	0.468832	0.099955
2.360000	5.568000	0.461352	0.096534
2.370000	5.562000	0.453815	0.093167
2.380000	5.555000	0.446214	0.089856
2.390000	5.547000	0.438551	0.086602
2.400000	5.537000	0.430834	0.083406
2.410000	5.527000	0.423074	0.080267
2.420000	5.516000	0.415280	0.077186
2.430000	5.506000	0.407459	0.074164
2.440000	5.498000	0.399623	0.071201
2.450000	5.492000	0.391779	0.068297
2.460000	5.491000	0.383937	0.065453
2.470000	5.496000	0.376107	0.062668
2.480000	5.507000	0.368296	0.059943
2.490000	5.524000	0.360513	0.057278
2.500000	5.550000	0.352769	0.054673
2.510000	5.582000	0.345072	0.052127
2.520000	5.619000	0.337431	0.049642
2.530000	5.661000	0.329855	0.047216
2.540000	5.704000	0.322353	0.044850
2.550000	5.748000	0.314933	0.042544
2.560000	5.789000	0.307606	0.040296
2.570000	5.824000	0.300378	0.038108
2.580000	5.853000	0.293261	0.035978
2.590000	5.873000	0.286261	0.033906
2.600000	5.884000	0.279389	0.031892
2.610000	5.885000	0.272652	0.029936
2.620000	5.878000	0.266061	0.028036
2.630000	5.863000	0.259623	0.026192
2.640000	5.843000	0.253347	0.024404
2.650000	5.819000	0.247229	0.022671
2.660000	5.795000	0.241262	0.020994
2.670000	5.772000	0.235446	0.019373
2.680000	5.753000	0.229785	0.017807
2.690000	5.738000	0.224279	0.016296
2.700000	5.729000	0.218932	0.014839
2.710000	5.726000	0.213743	0.013437
2.720000	5.728000	0.208715	0.012088
2.730000	5.734000	0.203851	0.010793
2.740000	5.744000	0.199150	0.009552
2.750000	5.755000	0.194616	0.008363
2.760000	5.765000	0.190250	0.007227
2.770000	5.774000	0.186053	0.006143
2.780000	5.781000	0.182027	0.005112
2.790000	5.783000	0.178174	0.004132
2.800000	5.782000	0.174495	0.003204
2.810000	5.778000	0.170991	0.002326
2.820000	5.770000	0.167666	0.001500
2.830000	5.762000	0.164518	0.000724
2.840000	5.752000	0.161552	-0.000001
2.850000	5.744000	0.158767	-0.000676
2.860000	5.738000	0.156165	-0.001302
2.870000	5.734000	0.153748	-0.001878
2.880000	5.735000	0.151518	-0.002405
2.890000	5.739000	0.149475	-0.002883
2.900000	5.747000	0.147621	-0.003313
2.910000	5.759000	0.145957	-0.003694
2.920000	5.774000	0.144481	-0.004027
2.930000	5.791000	0.143190	-0.004311
2.940000	5.809000	0.142083	-0.004547
2.950000	5.829000	0.141165	-0.004734
2.960000	5.848000	0.140437	-0.004873
2.970000	5.868000	0.139899	-0.004965
2.980000	5.887000	0.139552	-0.005008
2.990000	5.905000	0.139397	-0.005004
3.000000	5.922000	0.139435	-0.004952
3.010000	5.939000	0.139663	-0.004852
3.020000	5.954000	0.140082	-0.004705
3.030000	5.968000	0.140690	-0.004511
3.040000	5.980000	0.141486	-0.004268
3.050000	5.990000	0.142467	-0.003978
3.060000	5.997000	0.143631	-0.003641
3.070000	6.000000	0.144975	-0.003255
3.080000	6.000000	0.146496	-0.002822
3.090000	5.996000	0.148189	-0.002341
3.100000	5.988000	0.150051	-0.001812
3.110000	5.975000	0.152076	-0.001235
3.120000	5.960000	0.154261	-0.000609
3.130000	5.942000	0.156600	0.000065
3.140000	5.923000	0.159086	0.000788
3.150000	5.904000	0.161713	0.001560
3.160000	5.887000	0.164474	0.002381
3.170000	5.873000	0.167360	0.003251
3.180000	5.864000	0.170367	0.004170
3.190000	5.860000	0.173491	0.005138
3.200000	5.861000	0.176726	0.006155
3.210000	5.867000	0.180069	0.007221
3.220000	5.878000	0.183516	0.008337
3.230000	5.893000	0.187062	0.009503
3.240000	5.909000	0.190703	0.010719
3.250000	5.925000	0.194435	0.011984
3.260000	5.940000	0.198253	0.013299
3.270000	5.952000	0.202154	0.014664
3.280000	5.959000	0.206132	0.016079
3.290000	5.960000	0.210184	0.017543
3.300000	5.955000	0.214306	0.019057
3.310000	5.945000	0.218492	0.020621
3.320000	5.929000	0.222740	0.022234
3.330000	5.910000	0.227044	0.023896
3.340000	5.888000	0.231400	0.025606
3.350000	5.866000	0.235804	0.027366
3.360000	5.845000	0.240252	0.029174
3.370000	5.827000	0.244740	0.031030
3.380000	5.814000	0.249262	0.032934
3.390000	5.806000	0.253808	0.034885
3.400000	5.804000	0.258374	0.036882
3.410000	5.807000	0.262957	0.038927
3.420000	5.817000	0.267552	0.041017
3.430000	5.830000	0.272157	0.043154
3.440000	5.847000	0.276769	0.045336
3.450000	5.865000	0.281384	0.047563
3.460000	5.883000	0.285999	0.049835
3.470000	5.899000	0.290612	0.052151
3.480000	5.913000	0.295218	0.054511
3.490000	5.922000	0.299817	0.056913
3.500000	5.927000	0.304403	0.059357
3.510000	5.926000	0.308975	0.061843
3.520000	5.920000	0.313530	0.064369
3.530000	5.909000	0.318064	0.066934
3.540000	5.893000	0.322576	0.069538
3.550000	5.875000	0.327062	0.072179
3.560000	5.854000	0.331520	0.074857
3.570000	5.831000	0.335947	0.077570
3.580000	5.809000	0.340341	0.080317
3.590000	5.788000	0.344699	0.083097
3.600000	5.769000	0.349019	0.085908
3.610000	5.754000	0.353298	0.088750
3.620000	5.744000	0.357534	0.091620
3.630000	5.738000	0.361716	0.094517
3.640000	5.739000	0.365842	0.097441
3.650000	5.745000	0.369912	0.100390
3.660000	5.758000	0.373929	0.103363
3.670000	5.777000	0.377895	0.106358
3.680000	5.801000	0.381811	0.109375
3.690000	5.829000	0.385681	0.112410
3.700000	5.861000	0.389506	0.115464
3.710000	5.895000	0.393288	0.118535
3.720000	5.929000	0.397028	0.121621
3.730000	5.962000	0.400729	0.124720
3.740000	5.993000	0.404393	0.127831
3.750000	6.020000	0.408020	0.130952
3.760000	6.041000	0.411614	0.134081
3.770000	6.057000	0.415175	0.137218
3.780000	6.066000	0.418705	0.140359
3.790000	6.069000	0.422206	0.143504
3.800000	6.065000	0.425680	0.146650
3.810000	6.056000	0.429127	0.149795
3.820000	6.041000	0.432551	0.152938
3.830000	6.024000	0.435951	0.156076
3.840000	6.003000	0.439330	0.159208
3.850000	5.981000	0.442689	0.162332
3.860000	5.959000	0.446029	0.165445
3.870000	5.937000	0.449336	0.168547
3.880000	5.916000	0.452605	0.171635
3.890000	5.896000	0.455834	0.174709
3.900000	5.878000	0.459020	0.177765
3.910000	5.861000	0.462162	0.180804
3.920000	5.845000	0.465257	0.183822
3.930000	5.831000	0.468305	0.186818
3.940000	5.818000	0.471303	0.189790
3.950000	5.805000	0.474252	0.192737
3.960000	5.794000	0.477150	0.195656
3.970000	5.785000	0.479996	0.198546
3.980000	5.778000	0.482791	0.201406
3.990000	5.773000	0.485535	0.204233
4.000000	5.771000	0.488227	0.207026
4.010000	5.771000	0.490868	0.209783
4.020000	5.776000	0.493460	0.212503
4.030000	5.783000	0.496003	0.215183
4.040000	5.793000	0.498497	0.217823
4.050000	5.805000	0.500946	0.220420
4.060000	5.817000	0.503350	0.222974
4.070000	5.830000	0.505711	0.225482
4.080000	5.841000	0.508032	0.227942
4.090000	5.850000	0.510316	0.230354
4.100000	5.855000	0.512565	0.232716
4.110000	5.854000	0.514781	0.235027
4.120000	5.849000	0.516961	0.237286
4.130000	5.838000	0.519104	0.239490
4.140000	5.821000	0.521209	0.241639
4.150000	5.800000	0.523275	0.243730
4.160000	5.775000	0.525301	0.245764
4.170000	5.748000	0.527284	0.247737
4.180000	5.720000	0.529224	0.249650
4.190000	5.693000	0.531119	0.251501
4.200000	5.667000	0.532969	0.253289
4.210000	5.644000	0.534771	0.255012
4.220000	5.625000	0.536525	0.256671
4.230000	5.610000	0.538229	0.258263
4.240000	5.599000	0.539882	0.259789
4.250000	5.591000	0.541482	0.261246
4.260000	5.588000	0.543029	0.262635
4.270000	5.587000	0.544521	0.263955
4.280000	5.589000	0.545956	0.265205
4.290000	5.593000	0.547334	0.266385
4.300000	5.597000	0.548653	0.267493
4.310000	5.602000	0.549911	0.268531
4.320000	5.608000	0.551109	0.269496
4.330000	5.613000	0.552245	0.270389
4.340000	5.618000	0.553331	0.271209
4.350000	5.623000	0.554369	0.271956
4.360000	5.626000	0.555359	0.272629
4.370000	5.629000	0.556300	0.273228
4.380000	5.629000	0.557191	0.273752
4.390000	5.627000	0.558029	0.274201
4.400000	5.622000	0.558815	0.274575
4.410000	5.613000	0.559546	0.274875
4.420000	5.599000	0.560220	0.275099
4.430000	5.580000	0.560835	0.275248
4.440000	5.555000	0.561390	0.275322
4.450000	5.525000	0.561881	0.275321
4.460000	5.491000	0.562307	0.275246
4.470000	5.453000	0.562664	0.275096
4.480000	5.413000	0.562951	0.274871
4.490000	5.374000	0.563163	0.274572
4.500000	5.336000	0.563297	0.274200
4.510000	5.303000	0.563351	0.273754
4.520000	5.276000	0.563321	0.273236
4.530000	5.258000	0.563203	0.272645
4.540000	5.249000	0.562993	0.271983
4.550000	5.251000	0.562687	0.271250
4.560000	5.263000	0.562285	0.270446
4.570000	5.286000	0.561794	0.269571
4.580000	5.316000	0.561218	0.268628
4.590000	5.354000	0.560563	0.267615
4.600000	5.395000	0.559833	0.266534
4.610000	5.437000	0.559034	0.265386
4.620000	5.479000	0.558167	0.264172
4.630000	5.516000	0.557238	0.262892
4.640000	5.546000	0.556249	0.261547
4.650000	5.569000	0.555202	0.260138
4.660000	5.583000	0.554099	0.258667
4.670000	5.587000	0.552944	0.257133
4.680000	5.582000	0.551735	0.255539
4.690000	5.569000	0.550476	0.253884
4.700000	5.549000	0.549165	0.252171
4.710000	5.524000	0.547804	0.250400
4.720000	5.497000	0.546391	0.248572
4.730000	5.469000	0.544925	0.246690
4.740000	5.442000	0.543404	0.244752
4.750000	5.419000	0.541815	0.242762
4.760000	5.401000	0.540158	0.240721
4.770000	5.389000	0.538432	0.238629
4.780000	5.383000	0.536638	0.236489
4.790000	5.384000	0.534775	0.234301
4.800000	5.391000	0.532845	0.232068
4.810000	5.404000	0.530849	0.229790
4.820000	5.421000	0.528788	0.227469
4.830000	5.442000	0.526664	0.225106
4.840000	5.465000	0.524479	0.222704
4.850000	5.487000	0.522235	0.220262
4.860000	5.508000	0.519933	0.217784
4.870000	5.527000	0.517578	0.215270
4.880000	5.541000	0.515172	0.212722
4.890000	5.551000	0.512718	0.210141
4.900000	5.555000	0.510220	0.207530
4.910000	5.553000	0.507681	0.204888
4.920000	5.545000	0.505100	0.202219
4.930000	5.533000	0.502463	0.199524
4.940000	5.516000	0.499772	0.196803
4.950000	5.496000	0.497026	0.194060
4.960000	5.475000	0.494227	0.191295
4.970000	5.455000	0.491374	0.188511
4.980000	5.437000	0.488469	0.185708
4.990000	5.422000	0.485512	0.182889
5.000000	5.414000	0.482505	0.180056
5.010000	5.411000	0.479448	0.177209
5.020000	5.416000	0.476344	0.174351
5.030000	5.428000	0.473194	0.171483
5.040000	5.446000	0.470000	0.168607
5.050000	5.469000	0.466762	0.165724
5.060000	5.497000	0.463485	0.162836
5.070000	5.527000	0.460168	0.159945
5.080000	5.557000	0.456816	0.157052
5.090000	5.585000	0.453430	0.154158
5.100000	5.610000	0.450013	0.151266
5.110000	5.630000	0.446567	0.148377
5.120000	5.644000	0.443096	0.145492
5.130000	5.652000	0.439603	0.142613
5.140000	5.655000	0.436090	0.139741
5.150000	5.652000	0.432562	0.136878
5.160000	5.645000	0.429021	0.134026
5.170000	5.636000	0.425471	0.131186
5.180000	5.626000	0.421916	0.128359
5.190000	5.616000	0.418361	0.125546
5.200000	5.609000	0.414808	0.122750
5.210000	5.603000	0.411263	0.119972
5.220000	5.601000	0.407730	0.117213
5.230000	5.601000	0.404203	0.114474
5.240000	5.603000	0.400674	0.111758
5.250000	5.607000	0.397142	0.109064
5.260000	5.610000	0.393608	0.106395
5.270000	5.612000	0.390073	0.103751
5.280000	5.610000	0.386537	0.101135
5.290000	5.606000	0.383001	0.098547
5.300000	5.597000	0.379465	0.095989
5.310000	5.584000	0.375932	0.093462
5.320000	5.568000	0.372400	0.090967
5.330000	5.549000	0.368871	0.088505
5.340000	5.530000	0.365347	0.086077
5.350000	5.512000	0.361827	0.083685
5.360000	5.496000	0.358313	0.081330
5.370000	5.484000	0.354806	0.079012
5.380000	5.478000	0.351307	0.076732
5.390000	5.478000	0.347817	0.074492
5.400000	5.484000	0.344338	0.072292
5.410000	5.495000	0.340870	0.070134
5.420000	5.511000	0.337414	0.068018
5.430000	5.530000	0.333973	0.065945
5.440000	5.551000	0.330547	0.063916
5.450000	5.570000	0.327138	0.061931
5.460000	5.587000	0.323747	0.059992
5.470000	5.599000	0.320376	0.058099
5.480000	5.607000	0.317026	0.056253
5.490000	5.609000	0.313699	0.054455
5.500000	5.606000	0.310397	0.052704
5.510000	5.599000	0.307124	0.051002
