# Time (s), Wind Speed (m/s), Blade Displacement (m), Tower Displacement (m)
0.000000	7.354000	0.000000	0.000000
0.010000	7.365000	0.000286	0.000000
0.020000	7.377000	0.001140	0.000000
0.030000	7.389000	0.002553	0.000001
0.040000	7.401000	0.004516	0.000002
0.050000	7.413000	0.007020	0.000005
0.060000	7.425000	0.010055	0.000011
0.070000	7.438000	0.013610	0.000020
0.080000	7.452000	0.017675	0.000033
0.090000	7.468000	0.022238	0.000052
0.100000	7.486000	0.027288	0.000079
0.110000	7.507000	0.032813	0.000114
0.120000	7.530000	0.038802	0.000160
0.130000	7.554000	0.045242	0.000218
0.140000	7.579000	0.052122	0.000290
0.150000	7.602000	0.059430	0.000379
0.160000	7.623000	0.067153	0.000487
0.170000	7.638000	0.075280	0.000615
0.180000	7.648000	0.083793	0.000767
0.190000	7.650000	0.092675	0.000945
0.200000	7.643000	0.101908	0.001152
0.210000	7.629000	0.111473	0.001390
0.220000	7.608000	0.121351	0.001661
0.230000	7.582000	0.131523	0.001970
0.240000	7.553000	0.141968	0.002319
0.250000	7.524000	0.152666	0.002710
0.260000	7.497000	0.163595	0.003146
0.270000	7.477000	0.174734	0.003632
0.280000	7.466000	0.186060	0.004169
0.290000	7.464000	0.197551	0.004761
0.300000	7.475000	0.209192	0.005410
0.310000	7.497000	0.220969	0.006120
0.320000	7.530000	0.232870	0.006894
0.330000	7.573000	0.244884	0.007734
0.340000	7.623000	0.256998	0.008645
0.350000	7.678000	0.269201	0.009628
0.360000	7.736000	0.281483	0.010688
0.370000	7.794000	0.293833	0.011826
0.380000	7.849000	0.306241	0.013046
0.390000	7.899000	0.318695	0.014350
0.400000	7.943000	0.331188	0.015740
0.410000	7.980000	0.343710	0.017220
0.420000	8.009000	0.356251	0.018792
0.430000	8.031000	0.368803	0.020457
0.440000	8.045000	0.381357	0.022220
0.450000	8.051000	0.393907	0.024081
0.460000	8.051000	0.406446	0.026042
0.470000	8.042000	0.418956	0.028106
0.480000	8.027000	0.431414	0.030275
0.490000	8.003000	0.443800	0.032551
0.500000	7.971000	0.456093	0.034936
0.510000	7.932000	0.468272	0.037431
0.520000	7.885000	0.480321	0.040039
0.530000	7.830000	0.492221	0.042761
0.540000	7.771000	0.503954	0.045597
0.550000	7.707000	0.515505	0.048550
0.560000	7.642000	0.526859	0.051619
0.570000	7.579000	0.538002	0.054806
0.580000	7.520000	0.548919	0.058111
0.590000	7.470000	0.559598	0.061535
0.600000	7.429000	0.570028	0.065076
0.610000	7.402000	0.580198	0.068736
0.620000	7.389000	0.590098	0.072515
0.630000	7.390000	0.599717	0.076411
0.640000	7.405000	0.609050	0.080424
0.650000	7.432000	0.618087	0.084553
0.660000	7.468000	0.626822	0.088798
0.670000	7.510000	0.635270	0.093157
0.680000	7.553000	0.643441	0.097628
0.690000	7.594000	0.651339	0.102210
0.700000	7.631000	0.658966	0.106901
0.710000	7.659000	0.666326	0.111699
0.720000	7.678000	0.673423	0.116604
0.730000	7.686000	0.680258	0.121611
0.740000	7.685000	0.686837	0.126720
0.750000	7.676000	0.693161	0.131928
0.760000	7.661000	0.699234	0.137231
0.770000	7.642000	0.705061	0.142628
0.780000	7.623000	0.710643	0.148115
0.790000	7.606000	0.715985	0.153689
0.800000	7.593000	0.721091	0.159347
0.810000	7.584000	0.725963	0.165085
0.820000	7.582000	0.730606	0.170900
0.830000	7.583000	0.735023	0.176787
0.840000	7.588000	0.739218	0.182743
0.850000	7.594000	0.743195	0.188763
0.860000	7.598000	0.746957	0.194843
0.870000	7.599000	0.750508	0.200978
0.880000	7.594000	0.753853	0.207163
0.890000	7.582000	0.756994	0.213394
0.900000	7.563000	0.759937	0.219666
0.910000	7.536000	0.762685	0.225973
0.920000	7.505000	0.765242	0.232309
0.930000	7.470000	0.767611	0.238673
0.940000	7.434000	0.769797	0.245058
0.950000	7.400000	0.771807	0.251459
0.960000	7.371000	0.773646	0.257872
0.970000	7.348000	0.775323	0.264292
0.980000	7.334000	0.776843	0.270712
0.990000	7.327000	0.778215	0.277127
1.000000	7.329000	0.779446	0.283533
1.010000	7.338000	0.780545	0.289923
1.020000	7.351000	0.781520	0.296293
1.030000	7.367000	0.782380	0.302637
1.040000	7.383000	0.783136	0.308949
1.050000	7.398000	0.783796	0.315225
1.060000	7.409000	0.784372	0.321459
1.070000	7.416000	0.784873	0.327645
1.080000	7.420000	0.785311	0.333778
1.090000	7.420000	0.785697	0.339852
1.100000	7.419000	0.786043	0.345863
1.110000	7.420000	0.786362	0.351803
1.120000	7.423000	0.786664	0.357669
1.130000	7.432000	0.786965	0.363453
1.140000	7.448000	0.787272	0.369152
1.150000	7.471000	0.787584	0.374761
1.160000	7.502000	0.787914	0.380275
1.170000	7.540000	0.788276	0.385688
1.180000	7.581000	0.788684	0.390997
1.190000	7.625000	0.789147	0.396197
1.200000	7.666000	0.789678	0.401282
1.210000	7.702000	0.790284	0.406249
1.220000	7.730000	0.790974	0.411092
1.230000	7.746000	0.791754	0.415809
1.240000	7.749000	0.792628	0.420395
1.250000	7.739000	0.793601	0.424846
1.260000	7.715000	0.794675	0.429158
1.270000	7.680000	0.795851	0.433329
1.280000	7.636000	0.797129	0.437354
1.290000	7.586000	0.798507	0.441231
1.300000	7.535000	0.799983	0.444956
1.310000	7.484000	0.801553	0.448526
1.320000	7.438000	0.803208	0.451940
1.330000	7.398000	0.804935	0.455193
1.340000	7.366000	0.806732	0.458285
1.350000	7.343000	0.808595	0.461212
1.360000	7.326000	0.810523	0.463973
1.370000	7.316000	0.812513	0.466565
1.380000	7.309000	0.814562	0.468987
1.390000	7.303000	0.816666	0.471238
1.400000	7.296000	0.818822	0.473316
1.410000	7.285000	0.821026	0.475219
1.420000	7.269000	0.823275	0.476947
1.430000	7.247000	0.825565	0.478500
1.440000	7.218000	0.827890	0.479875
1.450000	7.184000	0.830246	0.481073
1.460000	7.147000	0.832628	0.482094
1.470000	7.107000	0.835031	0.482937
1.480000	7.067000	0.837451	0.483603
1.490000	7.030000	0.839879	0.484091
1.500000	6.996000	0.842303	0.484402
1.510000	6.968000	0.844717	0.484537
1.520000	6.946000	0.847114	0.484495
1.530000	6.930000	0.849486	0.484279
1.540000	6.918000	0.851829	0.483888
1.550000	6.911000	0.854135	0.483324
1.560000	6.906000	0.856400	0.482588
1.570000	6.903000	0.858615	0.481682
1.580000	6.898000	0.860778	0.480606
1.590000	6.892000	0.862880	0.479363
1.600000	6.883000	0.864918	0.477954
1.610000	6.872000	0.866885	0.476382
1.620000	6.858000	0.868777	0.474647
1.630000	6.843000	0.870589	0.472753
1.640000	6.828000	0.872316	0.470701
1.650000	6.814000	0.873953	0.468495
1.660000	6.802000	0.875496	0.466136
1.670000	6.794000	0.876940	0.463627
1.680000	6.790000	0.878281	0.460972
1.690000	6.791000	0.879516	0.458173
1.700000	6.797000	0.880639	0.455233
1.710000	6.807000	0.881646	0.452155
1.720000	6.820000	0.882534	0.448941
1.730000	6.836000	0.883301	0.445596
1.740000	6.852000	0.883945	0.442122
1.750000	6.868000	0.884465	0.438523
1.760000	6.884000	0.884859	0.434802
1.770000	6.897000	0.885125	0.430963
1.780000	6.909000	0.885262	0.427009
1.790000	6.918000	0.885268	0.422945
1.800000	6.926000	0.885140	0.418772
1.810000	6.933000	0.884876	0.414496
1.820000	6.938000	0.884475	0.410120
1.830000	6.943000	0.883934	0.405648
1.840000	6.949000	0.883250	0.401083
1.850000	6.954000	0.882421	0.396430
1.860000	6.959000	0.881444	0.391692
1.870000	6.963000	0.880318	0.386873
1.880000	6.966000	0.879038	0.381978
1.890000	6.967000	0.877603	0.377010
1.900000	6.965000	0.876008	0.371973
1.910000	6.960000	0.874253	0.366871
1.920000	6.951000	0.872332	0.361709
1.930000	6.938000	0.870243	0.356491
1.940000	6.923000	0.867984	0.351221
1.950000	6.904000	0.865549	0.345904
1.960000	6.884000	0.862937	0.340543
1.970000	6.863000	0.860146	0.335142
1.980000	6.843000	0.857180	0.329702
1.990000	6.824000	0.854036	0.324229
2.000000	6.808000	0.850706	0.318726
2.010000	6.794000	0.847189	0.313198
2.020000	6.784000	0.843479	0.307650
2.030000	6.776000	0.839573	0.302085
2.040000	6.770000	0.835469	0.296508
2.050000	6.765000	0.831163	0.290923
2.060000	6.761000	0.826653	0.285333
2.070000	6.755000	0.821939	0.279743
2.080000	6.747000	0.817019	0.274155
2.090000	6.736000	0.811892	0.268575
2.100000	6.721000	0.806559	0.263005
2.110000	6.703000	0.801018	0.257448
2.120000	6.683000	0.795272	0.251908
2.130000	6.660000	0.789320	0.246389
2.140000	6.635000	0.783166	0.240892
2.150000	6.611000	0.776810	0.235421
2.160000	6.588000	0.770256	0.229979
2.170000	6.567000	0.763506	0.224569
2.180000	6.549000	0.756564	0.219193
2.190000	6.534000	0.749434	0.213854
2.200000	6.524000	0.742120	0.208553
2.210000	6.517000	0.734626	0.203295
2.220000	6.513000	0.726959	0.198080
2.230000	6.512000	0.719124	0.192911
2.240000	6.512000	0.711128	0.187789
2.250000	6.514000	0.702975	0.182718
2.260000	6.517000	0.694675	0.177698
2.270000	6.519000	0.686237	0.172731
2.280000	6.520000	0.677675	0.167820
2.290000	6.521000	0.668994	0.162966
2.300000	6.521000	0.660197	0.158172
2.310000	6.520000	0.651289	0.153438
2.320000	6.518000	0.642276	0.148768
2.330000	6.515000	0.633162	0.144162
2.340000	6.512000	0.623954	0.139621
2.350000	6.507000	0.614656	0.135148
2.360000	6.502000	0.605276	0.130743
2.370000	6.495000	0.595820	0.126408
2.380000	6.486000	0.586295	0.122143
2.390000	6.476000	0.576707	0.117950
2.400000	6.465000	0.567065	0.113830
2.410000	6.452000	0.557376	0.109782
2.420000	6.439000	0.547648	0.105809
2.430000	6.427000	0.537889	0.101910
2.440000	6.416000	0.528109	0.098087
2.450000	6.410000	0.518316	0.094339
2.460000	6.408000	0.508520	0.090666
2.470000	6.414000	0.498730	0.087069
2.480000	6.427000	0.488957	0.083549
2.490000	6.449000	0.479209	0.080104
2.500000	6.480000	0.469499	0.076736
2.510000	6.519000	0.459837	0.073443
2.520000	6.565000	0.450234	0.070225
2.530000	6.617000	0.440702	0.067082
2.540000	6.670000	0.431252	0.064014
2.550000	6.724000	0.421897	0.061020
2.560000	6.774000	0.412658	0.058101
2.570000	6.817000	0.403560	0.055258
2.580000	6.852000	0.394612	0.052491
2.590000	6.877000	0.385821	0.049799
2.600000	6.890000	0.377195	0.047181
2.610000	6.892000	0.368742	0.044637
2.620000	6.883000	0.360468	0.042166
2.630000	6.865000	0.352380	0.039768
2.640000	6.840000	0.344482	0.037443
2.650000	6.812000	0.336780	0.035189
2.660000	6.782000	0.329277	0.033007
2.670000	6.754000	0.321978	0.030897
2.680000	6.730000	0.314884	0.028856
2.690000	6.712000	0.307999	0.026887
2.700000	6.701000	0.301324	0.024987
2.710000	6.697000	0.294861	0.023158
2.720000	6.699000	0.288609	0.021398
2.730000	6.707000	0.282569	0.019708
2.740000	6.719000	0.276739	0.018088
2.750000	6.732000	0.271120	0.016536
2.760000	6.746000	0.265708	0.015054
2.770000	6.757000	0.260501	0.013641
2.780000	6.764000	0.255496	0.012297
2.790000	6.767000	0.250690	0.011022
2.800000	6.766000	0.246091	0.009815
2.810000	6.761000	0.241714	0.008676
2.820000	6.752000	0.237557	0.007605
2.830000	6.741000	0.233623	0.006600
2.840000	6.730000	0.229910	0.005661
2.850000	6.719000	0.226420	0.004789
2.860000	6.712000	0.223153	0.003982
2.870000	6.708000	0.220110	0.003240
2.880000	6.708000	0.217290	0.002563
2.890000	6.714000	0.214695	0.001951
2.900000	6.724000	0.212324	0.001403
2.910000	6.738000	0.210179	0.000920
2.920000	6.756000	0.208260	0.000500
2.930000	6.777000	0.206567	0.000145
2.940000	6.800000	0.205101	-0.000148
2.950000	6.824000	0.203862	-0.000376
2.960000	6.848000	0.202851	-0.000542
2.970000	6.872000	0.202067	-0.000644
2.980000	6.895000	0.201513	-0.000682
2.990000	6.917000	0.201188	-0.000658
3.000000	6.939000	0.201092	-0.000570
3.010000	6.959000	0.201227	-0.000420
3.020000	6.978000	0.201592	-0.000205
3.030000	6.995000	0.202193	0.000072
3.040000	7.009000	0.203029	0.000412
3.050000	7.021000	0.204094	0.000815
3.060000	7.030000	0.205384	0.001281
3.070000	7.035000	0.206893	0.001810
3.080000	7.035000	0.208615	0.002401
3.090000	7.029000	0.210546	0.003055
3.100000	7.019000	0.212678	0.003771
3.110000	7.004000	0.215006	0.004550
3.120000	6.985000	0.217524	0.005391
3.130000	6.963000	0.220226	0.006295
3.140000	6.940000	0.223105	0.007261
3.150000	6.917000	0.226156	0.008289
3.160000	6.896000	0.229371	0.009380
3.170000	6.879000	0.232745	0.010533
3.180000	6.867000	0.236270	0.011749
3.190000	6.862000	0.239939	0.013028
3.200000	6.863000	0.243746	0.014369
3.210000	6.871000	0.247684	0.015772
3.220000	6.885000	0.251745	0.017239
3.230000	6.903000	0.255922	0.018768
3.240000	6.923000	0.260208	0.020361
3.250000	6.943000	0.264595	0.022016
3.260000	6.961000	0.269081	0.023735
3.270000	6.976000	0.273679	0.025516
3.280000	6.984000	0.278381	0.027359
3.290000	6.986000	0.283181	0.029264
3.300000	6.980000	0.288071	0.031231
3.310000	6.967000	0.293046	0.033259
3.320000	6.948000	0.298099	0.035348
3.330000	6.924000	0.303222	0.037497
3.340000	6.897000	0.308411	0.039707
3.350000	6.870000	0.313659	0.041976
3.360000	6.844000	0.318959	0.044305
3.370000	6.822000	0.324307	0.046693
3.380000	6.806000	0.329697	0.049138
3.390000	6.796000	0.335122	0.051642
3.400000	6.794000	0.340578	0.054202
3.410000	6.799000	0.346060	0.056819
3.420000	6.810000	0.351563	0.059492
3.430000	6.826000	0.357081	0.062221
3.440000	6.847000	0.362611	0.065004
3.450000	6.869000	0.368147	0.067841
3.460000	6.891000	0.373685	0.070731
3.470000	6.912000	0.379221	0.073673
3.480000	6.928000	0.384750	0.076667
3.490000	6.940000	0.390271	0.079712
3.500000	6.945000	0.395794	0.082806
3.510000	6.944000	0.401319	0.085948
3.520000	6.937000	0.406838	0.089137
3.530000	6.923000	0.412344	0.092371
3.540000	6.904000	0.417832	0.095650
3.550000	6.881000	0.423295	0.098972
3.560000	6.856000	0.428730	0.102336
3.570000	6.828000	0.434130	0.105740
3.580000	6.801000	0.439493	0.109184
3.590000	6.775000	0.444813	0.112664
3.600000	6.752000	0.450087	0.116181
3.610000	6.734000	0.455313	0.119732
3.620000	6.721000	0.460488	0.123316
3.630000	6.714000	0.465610	0.126932
3.640000	6.715000	0.470678	0.130577
3.650000	6.723000	0.475689	0.134250
3.660000	6.739000	0.480644	0.137949
3.670000	6.762000	0.485542	0.141672
3.680000	6.791000	0.490383	0.145418
3.690000	6.826000	0.495168	0.149185
3.700000	6.865000	0.499897	0.152970
3.710000	6.907000	0.504573	0.156773
3.720000	6.949000	0.509197	0.160590
3.730000	6.990000	0.513775	0.164420
3.740000	7.027000	0.518325	0.168262
3.750000	7.060000	0.522851	0.172113
3.760000	7.087000	0.527352	0.175971
3.770000	7.106000	0.531830	0.179834
3.780000	7.117000	0.536285	0.183699
3.790000	7.120000	0.540717	0.187564
3.800000	7.116000	0.545126	0.191427
3.810000	7.104000	0.549511	0.195286
3.820000	7.087000	0.553872	0.199138
3.830000	7.065000	0.558208	0.202981
3.840000	7.040000	0.562517	0.206813
3.850000	7.013000	0.566799	0.210633
3.860000	6.986000	0.571051	0.214437
3.870000	6.959000	0.575271	0.218224
3.880000	6.933000	0.579458	0.221991
3.890000	6.909000	0.583608	0.225737
3.900000	6.886000	0.587719	0.229459
3.910000	6.866000	0.591788	0.233156
3.920000	6.846000	0.595812	0.236825
3.930000	6.829000	0.599788	0.240465
3.940000	6.812000	0.603710	0.244073
3.950000	6.797000	0.607576	0.247647
3.960000	6.784000	0.611381	0.251186
3.970000	6.773000	0.615120	0.254688
3.980000	6.764000	0.618790	0.258150
3.990000	6.757000	0.622384	0.261571
4.000000	6.755000	0.625897	0.264950
4.010000	6.756000	0.629342	0.268283
4.020000	6.761000	0.632733	0.271568
4.030000	6.770000	0.636071	0.274805
4.040000	6.782000	0.639356	0.277990
4.050000	6.797000	0.642589	0.281121
4.060000	6.813000	0.645770	0.284198
4.070000	6.828000	0.648899	0.287218
4.080000	6.842000	0.651975	0.290180
4.090000	6.853000	0.654998	0.293081
4.100000	6.858000	0.657967	0.295921
4.110000	6.858000	0.660883	0.298696
4.120000	6.851000	0.663744	0.301407
4.130000	6.837000	0.666549	0.304051
4.140000	6.817000	0.669298	0.306627
4.150000	6.792000	0.671988	0.309133
4.160000	6.761000	0.674620	0.311568
4.170000	6.728000	0.677191	0.313931
4.180000	6.694000	0.679699	0.316220
4.190000	6.660000	0.682144	0.318433
4.200000	6.629000	0.684522	0.320571
4.210000	6.600000	0.686833	0.322630
4.220000	6.577000	0.689074	0.324612
4.230000	6.558000	0.691242	0.326513
4.240000	6.544000	0.693335	0.328333
4.250000	6.536000	0.695351	0.330071
4.260000	6.531000	0.697286	0.331726
4.270000	6.531000	0.699139	0.333297
4.280000	6.533000	0.700905	0.334783
4.290000	6.537000	0.702583	0.336184
4.300000	6.543000	0.704181	0.337498
4.310000	6.549000	0.705702	0.338726
4.320000	6.556000	0.707149	0.339866
4.330000	6.562000	0.708524	0.340918
4.340000	6.569000	0.709828	0.341882
4.350000	6.574000	0.711063	0.342756
4.360000	6.579000	0.712229	0.343541
4.370000	6.582000	0.713327	0.344237
4.380000	6.583000	0.714358	0.344842
4.390000	6.580000	0.715319	0.345357
4.400000	6.574000	0.716212	0.345782
4.410000	6.563000	0.717034	0.346115
4.420000	6.546000	0.717783	0.346358
4.430000	6.522000	0.718459	0.346511
4.440000	6.492000	0.719057	0.346573
4.450000	6.455000	0.719576	0.346544
4.460000	6.413000	0.720012	0.346426
4.470000	6.367000	0.720360	0.346217
4.480000	6.318000	0.720618	0.345919
4.490000	6.269000	0.720780	0.345531
4.500000	6.223000	0.720841	0.345055
4.510000	6.182000	0.720784	0.344490
4.520000	6.149000	0.720602	0.343837
4.530000	6.127000	0.720298	0.343096
4.540000	6.116000	0.719874	0.342268
4.550000	6.119000	0.719335	0.341354
4.560000	6.134000	0.718684	0.340354
4.570000	6.161000	0.717924	0.339270
4.580000	6.199000	0.717059	0.338102
4.590000	6.245000	0.716094	0.336851
4.600000	6.295000	0.715031	0.335518
4.610000	6.348000	0.713877	0.334103
4.620000	6.398000	0.712634	0.332608
4.630000	6.444000	0.711307	0.331033
4.640000	6.482000	0.709902	0.329380
4.650000	6.510000	0.708421	0.327650
4.660000	6.526000	0.706872	0.325843
4.670000	6.532000	0.705258	0.323961
4.680000	6.526000	0.703584	0.322005
4.690000	6.509000	0.701856	0.319975
4.700000	6.485000	0.700080	0.317874
4.710000	6.455000	0.698260	0.315701
4.720000	6.421000	0.696395	0.313460
4.730000	6.387000	0.694457	0.311151
4.740000	6.354000	0.692444	0.308775
4.750000	6.326000	0.690352	0.306336
4.760000	6.303000	0.688181	0.303833
4.770000	6.288000	0.685931	0.301269
4.780000	6.281000	0.683601	0.298646
4.790000	6.282000	0.681192	0.295965
4.800000	6.291000	0.678704	0.293228
4.810000	6.307000	0.676138	0.290436
4.820000	6.328000	0.673498	0.287591
4.830000	6.354000	0.670784	0.284695
4.840000	6.381000	0.667999	0.281750
4.850000	6.409000	0.665147	0.278757
4.860000	6.436000	0.662230	0.275719
4.870000	6.458000	0.659254	0.272637
4.880000	6.476000	0.656222	0.269512
4.890000	6.488000	0.653140	0.266348
4.900000	6.493000	0.650013	0.263145
4.910000	6.490000	0.646845	0.259906
4.920000	6.481000	0.643622	0.256633
4.930000	6.465000	0.640338	0.253327
4.940000	6.445000	0.636995	0.249991
4.950000	6.420000	0.633592	0.246627
4.960000	6.395000	0.630130	0.243236
4.970000	6.370000	0.626612	0.239821
4.980000	6.348000	0.623037	0.236383
4.990000	6.330000	0.619408	0.232925
5.000000	6.319000	0.615727	0.229448
5.010000	6.317000	0.611995	0.225954
5.020000	6.322000	0.608215	0.222446
5.030000	6.337000	0.604388	0.218926
5.040000	6.359000	0.600518	0.215394
5.050000	6.388000	0.596606	0.211854
5.060000	6.422000	0.592656	0.208308
5.070000	6.458000	0.588671	0.204756
5.080000	6.495000	0.584653	0.201202
5.090000	6.530000	0.580607	0.197647
5.100000	6.561000	0.576535	0.194094
5.110000	6.585000	0.572442	0.190543
5.120000	6.603000	0.568332	0.186998
5.130000	6.613000	0.564208	0.183460
5.140000	6.616000	0.560075	0.179932
5.150000	6.612000	0.555938	0.176414
5.160000	6.604000	0.551800	0.172910
5.170000	6.593000	0.547668	0.169421
5.180000	6.580000	0.543545	0.165948
5.190000	6.569000	0.539431	0.162494
5.200000	6.559000	0.535322	0.159060
5.210000	6.553000	0.531216	0.155647
5.220000	6.550000	0.527111	0.152258
5.230000	6.550000	0.523006	0.148895
5.240000	6.553000	0.518898	0.145559
5.250000	6.557000	0.514788	0.142253
5.260000	6.561000	0.510673	0.138978
5.270000	6.563000	0.506554	0.135736
5.280000	6.562000	0.502428	0.132529
5.290000	6.556000	0.498296	0.129358
5.300000	6.545000	0.494158	0.126225
5.310000	6.529000	0.490014	0.123131
5.320000	6.509000	0.485863	0.120079
5.330000	6.487000	0.481706	0.117069
5.340000	6.463000	0.477544	0.114103
5.350000	6.441000	0.473377	0.111182
5.360000	6.421000	0.469206	0.108308
5.370000	6.407000	0.465032	0.105481
5.380000	6.399000	0.460857	0.102704
5.390000	6.399000	0.456682	0.099976
5.400000	6.407000	0.452509	0.097300
5.410000	6.421000	0.448340	0.094675
5.420000	6.441000	0.444177	0.092104
5.430000	6.464000	0.440022	0.089587
5.440000	6.489000	0.435877	0.087125
5.450000	6.512000	0.431747	0.084719
5.460000	6.533000	0.427636	0.082371
5.470000	6.548000	0.423550	0.080080
5.480000	6.558000	0.419493	0.077849
5.490000	6.561000	0.415469	0.075678
5.500000	6.557000	0.411482	0.073567
5.510000	6.548000	0.407534	0.071517
5.520000	6.536000	0.403630	0.069528
