# Time (s), Wind Speed (m/s), Blade Displacement (m), Tower Displacement (m)
0.000000	5.124000	0.000000	0.000000
0.010000	5.129000	0.000149	0.000000
0.020000	5.134000	0.000594	0.000000
0.030000	5.139000	0.001331	0.000000
0.040000	5.144000	0.002357	0.000001
0.050000	5.149000	0.003667	0.000003
0.060000	5.154000	0.005257	0.000006
0.070000	5.160000	0.007121	0.000010
0.080000	5.166000	0.009255	0.000017
0.090000	5.173000	0.011654	0.000027
0.100000	5.180000	0.014311	0.000041
0.110000	5.189000	0.017221	0.000060
0.120000	5.199000	0.020378	0.000084
0.130000	5.209000	0.023776	0.000114
0.140000	5.220000	0.027409	0.000152
0.150000	5.230000	0.031271	0.000199
0.160000	5.239000	0.035354	0.000255
0.170000	5.245000	0.039651	0.000323
0.180000	5.249000	0.044154	0.000403
0.190000	5.250000	0.048856	0.000496
0.200000	5.247000	0.053748	0.000605
0.210000	5.241000	0.058822	0.000730
0.220000	5.232000	0.064067	0.000873
0.230000	5.221000	0.069475	0.001035
0.240000	5.209000	0.075034	0.001219
0.250000	5.196000	0.080733	0.001425
0.260000	5.185000	0.086563	0.001655
0.270000	5.177000	0.092514	0.001911
0.280000	5.172000	0.098575	0.002194
0.290000	5.171000	0.104737	0.002507
0.300000	5.175000	0.110992	0.002850
0.310000	5.185000	0.117331	0.003226
0.320000	5.199000	0.123746	0.003635
0.330000	5.217000	0.130228	0.004080
0.340000	5.238000	0.136771	0.004562
0.350000	5.262000	0.143366	0.005083
0.360000	5.287000	0.150008	0.005644
0.370000	5.311000	0.156690	0.006247
0.380000	5.334000	0.163405	0.006893
0.390000	5.356000	0.170149	0.007584
0.400000	5.375000	0.176915	0.008322
0.410000	5.390000	0.183697	0.009107
0.420000	5.403000	0.190487	0.009941
0.430000	5.412000	0.197277	0.010825
0.440000	5.418000	0.204060	0.011762
0.450000	5.421000	0.210829	0.012752
0.460000	5.420000	0.217576	0.013796
0.470000	5.417000	0.224293	0.014896
0.480000	5.410000	0.230973	0.016053
0.490000	5.400000	0.237608	0.017267
0.500000	5.387000	0.244189	0.018539
0.510000	5.370000	0.250710	0.019871
0.520000	5.350000	0.257162	0.021263
0.530000	5.326000	0.263537	0.022716
0.540000	5.301000	0.269827	0.024230
0.550000	5.274000	0.276023	0.025807
0.560000	5.246000	0.282118	0.027445
0.570000	5.219000	0.288103	0.029147
0.580000	5.194000	0.293971	0.030911
0.590000	5.173000	0.299717	0.032737
0.600000	5.156000	0.305334	0.034626
0.610000	5.144000	0.310819	0.036578
0.620000	5.138000	0.316165	0.038593
0.630000	5.139000	0.321370	0.040672
0.640000	5.145000	0.326429	0.042813
0.650000	5.157000	0.331340	0.045018
0.660000	5.172000	0.336100	0.047286
0.670000	5.190000	0.340708	0.049616
0.680000	5.208000	0.345160	0.052008
0.690000	5.226000	0.349458	0.054460
0.700000	5.241000	0.353599	0.056973
0.710000	5.253000	0.357585	0.059545
0.720000	5.261000	0.361414	0.062175
0.730000	5.265000	0.365090	0.064861
0.740000	5.264000	0.368611	0.067603
0.750000	5.260000	0.371982	0.070399
0.760000	5.254000	0.375204	0.073246
0.770000	5.246000	0.378279	0.076145
0.780000	5.238000	0.381212	0.079091
0.790000	5.230000	0.384007	0.082084
0.800000	5.225000	0.386667	0.085121
0.810000	5.221000	0.389198	0.088199
0.820000	5.220000	0.391605	0.091317
0.830000	5.221000	0.393889	0.094473
0.840000	5.223000	0.396044	0.097665
0.850000	5.225000	0.398073	0.100891
0.860000	5.227000	0.399978	0.104150
0.870000	5.227000	0.401762	0.107438
0.880000	5.225000	0.403428	0.110753
0.890000	5.220000	0.404978	0.114092
0.900000	5.212000	0.406416	0.117454
0.910000	5.201000	0.407744	0.120836
0.920000	5.187000	0.408966	0.124234
0.930000	5.172000	0.410085	0.127647
0.940000	5.157000	0.411105	0.131071
0.950000	5.143000	0.412029	0.134505
0.960000	5.130000	0.412861	0.137945
0.970000	5.120000	0.413604	0.141387
0.980000	5.114000	0.414264	0.144831
0.990000	5.111000	0.414843	0.148272
1.000000	5.112000	0.415346	0.151707
1.010000	5.116000	0.415777	0.155134
1.020000	5.121000	0.416141	0.158549
1.030000	5.128000	0.416442	0.161950
1.040000	5.135000	0.416685	0.165332
1.050000	5.141000	0.416874	0.168694
1.060000	5.146000	0.417015	0.172032
1.070000	5.149000	0.417115	0.175342
1.080000	5.150000	0.417181	0.178623
1.090000	5.151000	0.417217	0.181872
1.100000	5.150000	0.417229	0.185085
1.110000	5.150000	0.417221	0.188260
1.120000	5.152000	0.417198	0.191393
1.130000	5.156000	0.417165	0.194483
1.140000	5.162000	0.417128	0.197526
1.150000	5.172000	0.417090	0.200519
1.160000	5.185000	0.417058	0.203460
1.170000	5.201000	0.417037	0.206346
1.180000	5.219000	0.417031	0.209174
1.190000	5.238000	0.417047	0.211942
1.200000	5.255000	0.417091	0.214648
1.210000	5.271000	0.417168	0.217289
1.220000	5.282000	0.417284	0.219863
1.230000	5.289000	0.417441	0.222367
1.240000	5.290000	0.417644	0.224798
1.250000	5.286000	0.417895	0.227156
1.260000	5.276000	0.418196	0.229438
1.270000	5.261000	0.418548	0.231642
1.280000	5.242000	0.418951	0.233766
1.290000	5.221000	0.419406	0.235808
1.300000	5.199000	0.419910	0.237767
1.310000	5.177000	0.420463	0.239641
1.320000	5.158000	0.421061	0.241429
1.330000	5.141000	0.421706	0.243130
1.340000	5.127000	0.422397	0.244741
1.350000	5.117000	0.423133	0.246262
1.360000	5.110000	0.423914	0.247691
1.370000	5.106000	0.424739	0.249027
1.380000	5.103000	0.425608	0.250270
1.390000	5.100000	0.426519	0.251418
1.400000	5.097000	0.427472	0.252471
1.410000	5.092000	0.428464	0.253428
1.420000	5.086000	0.429494	0.254289
1.430000	5.076000	0.430561	0.255053
1.440000	5.064000	0.431663	0.255719
1.450000	5.049000	0.432798	0.256288
1.460000	5.033000	0.433964	0.256760
1.470000	5.016000	0.435158	0.257134
1.480000	4.999000	0.436378	0.257411
1.490000	4.983000	0.437622	0.257590
1.500000	4.969000	0.438886	0.257673
1.510000	4.957000	0.440166	0.257659
1.520000	4.948000	0.441459	0.257548
1.530000	4.941000	0.442761	0.257342
1.540000	4.936000	0.444069	0.257041
1.550000	4.933000	0.445380	0.256645
1.560000	4.931000	0.446690	0.256155
1.570000	4.929000	0.447997	0.255572
1.580000	4.927000	0.449298	0.254897
1.590000	4.924000	0.450588	0.254132
1.600000	4.921000	0.451864	0.253276
1.610000	4.916000	0.453125	0.252331
1.620000	4.910000	0.454365	0.251298
1.630000	4.904000	0.455582	0.250180
1.640000	4.897000	0.456772	0.248976
1.650000	4.891000	0.457933	0.247689
1.660000	4.886000	0.459060	0.246320
1.670000	4.883000	0.460151	0.244870
1.680000	4.881000	0.461202	0.243342
1.690000	4.881000	0.462209	0.241738
1.700000	4.884000	0.463170	0.240058
1.710000	4.888000	0.464081	0.238306
1.720000	4.893000	0.464939	0.236483
1.730000	4.900000	0.465742	0.234590
1.740000	4.907000	0.466487	0.232630
1.750000	4.914000	0.467174	0.230604
1.760000	4.920000	0.467798	0.228515
1.770000	4.926000	0.468357	0.226365
1.780000	4.931000	0.468850	0.224155
1.790000	4.935000	0.469273	0.221889
1.800000	4.938000	0.469624	0.219567
1.810000	4.941000	0.469900	0.217194
1.820000	4.943000	0.470100	0.214769
1.830000	4.946000	0.470221	0.212297
1.840000	4.948000	0.470260	0.209778
1.850000	4.950000	0.470216	0.207216
1.860000	4.952000	0.470085	0.204613
1.870000	4.954000	0.469866	0.201970
1.880000	4.955000	0.469556	0.199291
1.890000	4.955000	0.469153	0.196577
1.900000	4.955000	0.468655	0.193832
1.910000	4.952000	0.468059	0.191056
1.920000	4.949000	0.467364	0.188253
1.930000	4.943000	0.466567	0.185425
1.940000	4.936000	0.465666	0.182575
1.950000	4.929000	0.464659	0.179703
1.960000	4.920000	0.463544	0.176813
1.970000	4.911000	0.462320	0.173907
1.980000	4.902000	0.460983	0.170987
1.990000	4.894000	0.459532	0.168055
2.000000	4.887000	0.457966	0.165114
2.010000	4.882000	0.456282	0.162166
2.020000	4.877000	0.454480	0.159214
2.030000	4.874000	0.452559	0.156259
2.040000	4.871000	0.450517	0.153303
2.050000	4.869000	0.448355	0.150349
2.060000	4.867000	0.446072	0.147398
2.070000	4.865000	0.443668	0.144453
2.080000	4.861000	0.441143	0.141515
2.090000	4.856000	0.438498	0.138586
2.100000	4.850000	0.435732	0.135668
2.110000	4.843000	0.432847	0.132763
2.120000	4.834000	0.429844	0.129872
2.130000	4.824000	0.426723	0.126997
2.140000	4.814000	0.423487	0.124139
2.150000	4.803000	0.420137	0.121301
2.160000	4.793000	0.416674	0.118483
2.170000	4.784000	0.413101	0.115686
2.180000	4.777000	0.409421	0.112913
2.190000	4.770000	0.405633	0.110165
2.200000	4.766000	0.401740	0.107441
2.210000	4.763000	0.397743	0.104745
2.220000	4.761000	0.393644	0.102076
2.230000	4.761000	0.389448	0.099437
2.240000	4.761000	0.385157	0.096828
2.250000	4.762000	0.380774	0.094251
2.260000	4.763000	0.376301	0.091708
2.270000	4.764000	0.371744	0.089198
2.280000	4.764000	0.367104	0.086723
2.290000	4.764000	0.362386	0.084284
2.300000	4.764000	0.357593	0.081881
2.310000	4.764000	0.352729	0.079516
2.320000	4.763000	0.347798	0.077189
2.330000	4.762000	0.342804	0.074900
2.340000	4.760000	0.337752	0.072650
2.350000	4.759000	0.332646	0.070440
2.360000	4.756000	0.327490	0.068270
2.370000	4.753000	0.322289	0.066140
2.380000	4.750000	0.317047	0.064050
2.390000	4.745000	0.311770	0.062001
2.400000	4.740000	0.306463	0.059992
2.410000	4.735000	0.301130	0.058024
2.420000	4.729000	0.295777	0.056097
2.430000	4.724000	0.290410	0.054210
2.440000	4.720000	0.285033	0.052363
2.450000	4.717000	0.279653	0.050557
2.460000	4.716000	0.274275	0.048790
2.470000	4.719000	0.268904	0.047062
2.480000	4.724000	0.263542	0.045375
2.490000	4.734000	0.258198	0.043728
2.500000	4.747000	0.252877	0.042122
2.510000	4.763000	0.247586	0.040555
2.520000	4.783000	0.242331	0.039028
2.530000	4.805000	0.237117	0.037541
2.540000	4.828000	0.231952	0.036093
2.550000	4.850000	0.226840	0.034684
2.560000	4.872000	0.221786	0.033314
2.570000	4.890000	0.216796	0.031983
2.580000	4.905000	0.211876	0.030691
2.590000	4.916000	0.207029	0.029436
2.600000	4.921000	0.202260	0.028219
2.610000	4.922000	0.197574	0.027039
2.620000	4.918000	0.192975	0.025897
2.630000	4.910000	0.188468	0.024791
2.640000	4.900000	0.184055	0.023721
2.650000	4.888000	0.179740	0.022687
2.660000	4.875000	0.175528	0.021688
2.670000	4.863000	0.171420	0.020724
2.680000	4.853000	0.167421	0.019794
2.690000	4.845000	0.163534	0.018898
2.700000	4.840000	0.159760	0.018035
2.710000	4.839000	0.156102	0.017204
2.720000	4.840000	0.152563	0.016406
2.730000	4.843000	0.149144	0.015639
2.740000	4.848000	0.145848	0.014904
2.750000	4.854000	0.142675	0.014200
2.760000	4.859000	0.139626	0.013528
2.770000	4.864000	0.136705	0.012887
2.780000	4.867000	0.133913	0.012277
2.790000	4.869000	0.131252	0.011697
2.800000	4.868000	0.128724	0.011148
2.810000	4.866000	0.126330	0.010628
2.820000	4.862000	0.124072	0.010137
2.830000	4.857000	0.121950	0.009675
2.840000	4.852000	0.119966	0.009242
2.850000	4.848000	0.118120	0.008837
2.860000	4.845000	0.116414	0.008460
2.870000	4.843000	0.114847	0.008112
2.880000	4.843000	0.113421	0.007791
2.890000	4.845000	0.112134	0.007498
2.900000	4.850000	0.110986	0.007233
2.910000	4.856000	0.109979	0.006996
2.920000	4.864000	0.109111	0.006785
2.930000	4.872000	0.108381	0.006603
2.940000	4.882000	0.107789	0.006448
2.950000	4.892000	0.107334	0.006321
2.960000	4.902000	0.107015	0.006221
2.970000	4.913000	0.106830	0.006149
2.980000	4.923000	0.106777	0.006105
2.990000	4.932000	0.106856	0.006089
3.000000	4.941000	0.107067	0.006101
3.010000	4.950000	0.107414	0.006141
3.020000	4.958000	0.107896	0.006209
3.030000	4.965000	0.108511	0.006305
3.040000	4.971000	0.109258	0.006429
3.050000	4.976000	0.110133	0.006581
3.060000	4.980000	0.111134	0.006762
3.070000	4.982000	0.112260	0.006970
3.080000	4.982000	0.113506	0.007208
3.090000	4.980000	0.114870	0.007474
3.100000	4.975000	0.116349	0.007769
3.110000	4.969000	0.117941	0.008092
3.120000	4.961000	0.119641	0.008445
3.130000	4.951000	0.121447	0.008828
3.140000	4.941000	0.123354	0.009240
3.150000	4.931000	0.125360	0.009682
3.160000	4.923000	0.127460	0.010154
3.170000	4.915000	0.129651	0.010656
3.180000	4.910000	0.131929	0.011189
3.190000	4.908000	0.134289	0.011752
3.200000	4.909000	0.136727	0.012347
3.210000	4.912000	0.139239	0.012974
3.220000	4.918000	0.141820	0.013632
3.230000	4.925000	0.144466	0.014322
3.240000	4.934000	0.147174	0.015045
3.250000	4.942000	0.149947	0.015800
3.260000	4.950000	0.152783	0.016587
3.270000	4.956000	0.155676	0.017407
3.280000	4.960000	0.158624	0.018260
3.290000	4.961000	0.161622	0.019145
3.300000	4.958000	0.164666	0.020063
3.310000	4.953000	0.167754	0.021014
3.320000	4.944000	0.170880	0.021999
3.330000	4.934000	0.174042	0.023017
3.340000	4.923000	0.177236	0.024068
3.350000	4.911000	0.180459	0.025152
3.360000	4.900000	0.183706	0.026269
3.370000	4.891000	0.186975	0.027420
3.380000	4.884000	0.190262	0.028604
3.390000	4.880000	0.193564	0.029822
3.400000	4.879000	0.196876	0.031072
3.410000	4.881000	0.200197	0.032355
3.420000	4.885000	0.203523	0.033672
3.430000	4.892000	0.206850	0.035021
3.440000	4.901000	0.210175	0.036402
3.450000	4.911000	0.213496	0.037816
3.460000	4.920000	0.216808	0.039262
3.470000	4.929000	0.220110	0.040741
3.480000	4.936000	0.223397	0.042250
3.490000	4.940000	0.226668	0.043792
3.500000	4.943000	0.229926	0.045364
3.510000	4.942000	0.233171	0.046967
3.520000	4.939000	0.236398	0.048599
3.530000	4.933000	0.239605	0.050260
3.540000	4.925000	0.242788	0.051951
3.550000	4.916000	0.245946	0.053670
3.560000	4.904000	0.249075	0.055416
3.570000	4.893000	0.252174	0.057190
3.580000	4.881000	0.255240	0.058991
3.590000	4.870000	0.258271	0.060817
3.600000	4.860000	0.261266	0.062668
3.610000	4.852000	0.264224	0.064544
3.620000	4.847000	0.267142	0.066444
3.630000	4.844000	0.270020	0.068366
3.640000	4.844000	0.272857	0.070311
3.650000	4.848000	0.275652	0.072276
3.660000	4.855000	0.278406	0.074262
3.670000	4.864000	0.281117	0.076267
3.680000	4.877000	0.283785	0.078291
3.690000	4.892000	0.286411	0.080332
3.700000	4.908000	0.288995	0.082389
3.710000	4.926000	0.291537	0.084461
3.720000	4.944000	0.294039	0.086547
3.730000	4.961000	0.296500	0.088646
3.740000	4.977000	0.298923	0.090757
3.750000	4.991000	0.301309	0.092879
3.760000	5.002000	0.303659	0.095009
3.770000	5.011000	0.305980	0.097149
3.780000	5.015000	0.308269	0.099295
3.790000	5.017000	0.310528	0.101448
3.800000	5.015000	0.312755	0.103605
3.810000	5.010000	0.314951	0.105765
3.820000	5.002000	0.317115	0.107927
3.830000	4.993000	0.319246	0.110090
3.840000	4.983000	0.321345	0.112252
3.850000	4.971000	0.323411	0.114412
3.860000	4.959000	0.325444	0.116569
3.870000	4.948000	0.327444	0.118721
3.880000	4.937000	0.329411	0.120867
3.890000	4.926000	0.331344	0.123006
3.900000	4.917000	0.333245	0.125136
3.910000	4.908000	0.335112	0.127257
3.920000	4.900000	0.336945	0.129366
3.930000	4.892000	0.338746	0.131462
3.940000	4.885000	0.340513	0.133545
3.950000	4.879000	0.342248	0.135612
3.960000	4.873000	0.343950	0.137663
3.970000	4.868000	0.345619	0.139696
3.980000	4.864000	0.347256	0.141710
3.990000	4.862000	0.348861	0.143703
4.000000	4.861000	0.350434	0.145675
4.010000	4.861000	0.351976	0.147624
4.020000	4.863000	0.353487	0.149548
4.030000	4.867000	0.354968	0.151447
4.040000	4.872000	0.356418	0.153318
4.050000	4.878000	0.357839	0.155162
4.060000	4.885000	0.359230	0.156976
4.070000	4.892000	0.360594	0.158759
4.080000	4.898000	0.361934	0.160510
4.090000	4.902000	0.363253	0.162229
4.100000	4.904000	0.364552	0.163914
4.110000	4.904000	0.365831	0.165564
4.120000	4.901000	0.367090	0.167177
4.130000	4.895000	0.368330	0.168753
4.140000	4.887000	0.369550	0.170291
4.150000	4.876000	0.370751	0.171789
4.160000	4.863000	0.371932	0.173246
4.170000	4.849000	0.373093	0.174662
4.180000	4.834000	0.374235	0.176035
4.190000	4.820000	0.375357	0.177365
4.200000	4.806000	0.376458	0.178651
4.210000	4.794000	0.377538	0.179892
4.220000	4.784000	0.378597	0.181086
4.230000	4.776000	0.379634	0.182235
4.240000	4.770000	0.380649	0.183336
4.250000	4.767000	0.381640	0.184389
4.260000	4.765000	0.382608	0.185394
4.270000	4.764000	0.383552	0.186349
4.280000	4.765000	0.384469	0.187255
4.290000	4.767000	0.385361	0.188112
4.300000	4.769000	0.386224	0.188917
4.310000	4.772000	0.387060	0.189672
4.320000	4.775000	0.387867	0.190376
4.330000	4.778000	0.388652	0.191028
4.340000	4.780000	0.389416	0.191628
4.350000	4.783000	0.390158	0.192176
4.360000	4.785000	0.390879	0.192671
4.370000	4.786000	0.391577	0.193113
4.380000	4.786000	0.392252	0.193502
4.390000	4.785000	0.392903	0.193837
4.400000	4.782000	0.393529	0.194119
4.410000	4.778000	0.394129	0.194347
4.420000	4.770000	0.394702	0.194522
4.430000	4.760000	0.395247	0.194643
4.440000	4.747000	0.395763	0.194711
4.450000	4.732000	0.396247	0.194725
4.460000	4.714000	0.396700	0.194686
4.470000	4.694000	0.397118	0.194593
4.480000	4.673000	0.397501	0.194448
4.490000	4.652000	0.397847	0.194250
4.500000	4.633000	0.398155	0.194000
4.510000	4.615000	0.398421	0.193698
4.520000	4.601000	0.398645	0.193345
4.530000	4.592000	0.398823	0.192940
4.540000	4.587000	0.398955	0.192485
4.550000	4.588000	0.399037	0.191979
4.560000	4.595000	0.399069	0.191425
4.570000	4.606000	0.399057	0.190820
4.580000	4.622000	0.399002	0.190167
4.590000	4.642000	0.398906	0.189466
4.600000	4.663000	0.398769	0.188718
4.610000	4.686000	0.398592	0.187922
4.620000	4.707000	0.398374	0.187080
4.630000	4.726000	0.398116	0.186193
4.640000	4.742000	0.397819	0.185261
4.650000	4.754000	0.397482	0.184285
4.660000	4.762000	0.397106	0.183265
4.670000	4.764000	0.396689	0.182203
4.680000	4.761000	0.396233	0.181100
4.690000	4.754000	0.395736	0.179956
4.700000	4.744000	0.395198	0.178771
4.710000	4.731000	0.394618	0.177548
4.720000	4.717000	0.393996	0.176287
4.730000	4.702000	0.393332	0.174988
4.740000	4.688000	0.392623	0.173653
4.750000	4.676000	0.391870	0.172283
4.760000	4.666000	0.391070	0.170879
4.770000	4.660000	0.390223	0.169442
4.780000	4.657000	0.389328	0.167972
4.790000	4.657000	0.388383	0.166471
4.800000	4.661000	0.387387	0.164940
4.810000	4.668000	0.386337	0.163380
4.820000	4.677000	0.385234	0.161793
4.830000	4.688000	0.384085	0.160179
4.840000	4.699000	0.382891	0.158539
4.850000	4.711000	0.381652	0.156874
4.860000	4.722000	0.380369	0.155186
4.870000	4.732000	0.379040	0.153475
4.880000	4.740000	0.377667	0.151744
4.890000	4.745000	0.376249	0.149992
4.900000	4.747000	0.374786	0.148222
4.910000	4.746000	0.373278	0.146434
4.920000	4.742000	0.371725	0.144629
4.930000	4.735000	0.370127	0.142809
4.940000	4.726000	0.368484	0.140975
4.950000	4.716000	0.366796	0.139127
4.960000	4.705000	0.365063	0.137268
4.970000	4.694000	0.363284	0.135398
4.980000	4.685000	0.361461	0.133518
4.990000	4.677000	0.359593	0.131629
5.000000	4.673000	0.357681	0.129733
5.010000	4.671000	0.355723	0.127830
5.020000	4.674000	0.353721	0.125922
5.030000	4.680000	0.351674	0.124010
5.040000	4.689000	0.349583	0.122095
5.050000	4.702000	0.347448	0.120178
5.060000	4.716000	0.345268	0.118260
5.070000	4.732000	0.343045	0.116343
5.080000	4.747000	0.340788	0.114427
5.090000	4.762000	0.338498	0.112513
5.100000	4.775000	0.336177	0.110602
5.110000	4.786000	0.333825	0.108695
5.120000	4.793000	0.331445	0.106794
5.130000	4.797000	0.329037	0.104900
5.140000	4.799000	0.326603	0.103012
5.150000	4.797000	0.324145	0.101133
5.160000	4.794000	0.321663	0.099262
5.170000	4.789000	0.319159	0.097402
5.180000	4.783000	0.316633	0.095553
5.190000	4.778000	0.314089	0.093715
5.200000	4.774000	0.311525	0.091890
5.210000	4.772000	0.308945	0.090078
5.220000	4.770000	0.306349	0.088281
5.230000	4.770000	0.303738	0.086498
5.240000	4.772000	0.301113	0.084732
5.250000	4.773000	0.298477	0.082982
5.260000	4.775000	0.295829	0.081250
5.270000	4.776000	0.293172	0.079535
5.280000	4.775000	0.290505	0.077840
5.290000	4.773000	0.287832	0.076164
5.300000	4.768000	0.285152	0.074508
5.310000	4.761000	0.282467	0.072873
5.320000	4.753000	0.279778	0.071260
5.330000	4.743000	0.277086	0.069668
5.340000	4.733000	0.274392	0.068100
5.350000	4.724000	0.271698	0.066555
5.360000	4.715000	0.269004	0.065034
5.370000	4.709000	0.266312	0.063537
5.380000	4.706000	0.263622	0.062066
5.390000	4.706000	0.260936	0.060620
5.400000	4.709000	0.258255	0.059200
5.410000	4.715000	0.255580	0.057807
5.420000	4.723000	0.252912	0.056441
5.430000	4.733000	0.250252	0.055102
5.440000	4.744000	0.247601	0.053792
5.450000	4.754000	0.244960	0.052510
5.460000	4.763000	0.242332	0.051256
5.470000	4.769000	0.239722	0.050032
5.480000	4.773000	0.237132	0.048836
5.490000	4.774000	0.234564	0.047670
5.500000	4.773000	0.232020	0.046534
5.510000	4.769000	0.229503	0.045428
5.520000	4.764000	0.227014	0.044351
