# Time (s), Wind Speed (m/s), Blade Displacement (m), Tower Displacement (m)
0.000000	8.447000	0.000000	0.000000
0.010000	8.461000	0.000358	0.000000
0.020000	8.475000	0.001426	0.000000
0.030000	8.489000	0.003192	0.000001
0.040000	8.504000	0.005645	0.000003
0.050000	8.518000	0.008771	0.000007
0.060000	8.533000	0.012557	0.000014
0.070000	8.548000	0.016990	0.000025
0.080000	8.565000	0.022056	0.000042
0.090000	8.584000	0.027739	0.000066
0.100000	8.606000	0.034025	0.000099
0.110000	8.630000	0.040898	0.000142
0.120000	8.658000	0.048345	0.000200
0.130000	8.687000	0.056351	0.000272
0.140000	8.717000	0.064899	0.000362
0.150000	8.745000	0.073975	0.000473
0.160000	8.769000	0.083560	0.000607
0.170000	8.788000	0.093636	0.000767
0.180000	8.799000	0.104186	0.000957
0.190000	8.801000	0.115191	0.001178
0.200000	8.794000	0.126630	0.001435
0.210000	8.777000	0.138482	0.001731
0.220000	8.751000	0.150717	0.002069
0.230000	8.720000	0.163307	0.002453
0.240000	8.685000	0.176224	0.002886
0.250000	8.651000	0.189443	0.003372
0.260000	8.619000	0.202938	0.003915
0.270000	8.595000	0.216683	0.004519
0.280000	8.582000	0.230657	0.005186
0.290000	8.580000	0.244836	0.005922
0.300000	8.592000	0.259199	0.006729
0.310000	8.619000	0.273725	0.007611
0.320000	8.658000	0.288395	0.008572
0.330000	8.709000	0.303189	0.009616
0.340000	8.770000	0.318092	0.010746
0.350000	8.836000	0.333098	0.011966
0.360000	8.905000	0.348197	0.013279
0.370000	8.974000	0.363380	0.014689
0.380000	9.039000	0.378635	0.016200
0.390000	9.099000	0.393952	0.017814
0.400000	9.152000	0.409318	0.019536
0.410000	9.196000	0.424720	0.021369
0.420000	9.231000	0.440146	0.023315
0.430000	9.257000	0.455581	0.025378
0.440000	9.274000	0.471010	0.027560
0.450000	9.282000	0.486418	0.029865
0.460000	9.281000	0.501789	0.032294
0.470000	9.271000	0.517106	0.034851
0.480000	9.252000	0.532353	0.037537
0.490000	9.224000	0.547510	0.040355
0.500000	9.186000	0.562559	0.043307
0.510000	9.139000	0.577481	0.046395
0.520000	9.082000	0.592244	0.049620
0.530000	9.018000	0.606821	0.052982
0.540000	8.946000	0.621189	0.056484
0.550000	8.870000	0.635329	0.060128
0.560000	8.793000	0.649221	0.063915
0.570000	8.717000	0.662847	0.067846
0.580000	8.647000	0.676192	0.071923
0.590000	8.587000	0.689243	0.076145
0.600000	8.539000	0.701986	0.080513
0.610000	8.506000	0.714411	0.085028
0.620000	8.491000	0.726510	0.089688
0.630000	8.492000	0.738274	0.094494
0.640000	8.510000	0.749698	0.099445
0.650000	8.542000	0.760778	0.104540
0.660000	8.585000	0.771512	0.109777
0.670000	8.635000	0.781899	0.115156
0.680000	8.686000	0.791941	0.120674
0.690000	8.736000	0.801640	0.126329
0.700000	8.779000	0.811000	0.132119
0.710000	8.813000	0.820027	0.138041
0.720000	8.836000	0.828730	0.144093
0.730000	8.846000	0.837117	0.150271
0.740000	8.845000	0.845200	0.156572
0.750000	8.834000	0.852991	0.162992
0.760000	8.815000	0.860492	0.169528
0.770000	8.793000	0.867689	0.176177
0.780000	8.770000	0.874583	0.182934
0.790000	8.750000	0.881179	0.189797
0.800000	8.734000	0.887478	0.196761
0.810000	8.725000	0.893486	0.203822
0.820000	8.721000	0.899207	0.210976
0.830000	8.723000	0.904644	0.218218
0.840000	8.729000	0.909804	0.225543
0.850000	8.736000	0.914691	0.232947
0.860000	8.741000	0.919311	0.240424
0.870000	8.742000	0.923671	0.247969
0.880000	8.736000	0.927776	0.255577
0.890000	8.722000	0.931633	0.263242
0.900000	8.699000	0.935251	0.270958
0.910000	8.667000	0.938635	0.278720
0.920000	8.630000	0.941795	0.286521
0.930000	8.588000	0.944738	0.294354
0.940000	8.545000	0.947473	0.302215
0.950000	8.505000	0.950010	0.310094
0.960000	8.470000	0.952357	0.317987
0.970000	8.443000	0.954525	0.325886
0.980000	8.425000	0.956523	0.333783
0.990000	8.418000	0.958352	0.341673
1.000000	8.420000	0.960018	0.349552
1.010000	8.430000	0.961532	0.357412
1.020000	8.446000	0.962906	0.365246
1.030000	8.465000	0.964152	0.373048
1.040000	8.485000	0.965282	0.380810
1.050000	8.502000	0.966307	0.388527
1.060000	8.515000	0.967239	0.396190
1.070000	8.524000	0.968089	0.403795
1.080000	8.528000	0.968870	0.411334
1.090000	8.529000	0.969594	0.418801
1.100000	8.528000	0.970271	0.426189
1.110000	8.528000	0.970915	0.433493
1.120000	8.533000	0.971537	0.440705
1.130000	8.543000	0.972149	0.447819
1.140000	8.562000	0.972762	0.454829
1.150000	8.590000	0.973390	0.461730
1.160000	8.627000	0.974043	0.468514
1.170000	8.672000	0.974735	0.475176
1.180000	8.722000	0.975476	0.481710
1.190000	8.774000	0.976280	0.488109
1.200000	8.823000	0.977164	0.494369
1.210000	8.867000	0.978156	0.500485
1.220000	8.899000	0.979264	0.506452
1.230000	8.919000	0.980493	0.512264
1.240000	8.923000	0.981847	0.517917
1.250000	8.910000	0.983328	0.523404
1.260000	8.882000	0.984936	0.528723
1.270000	8.840000	0.986672	0.533868
1.280000	8.788000	0.988533	0.538836
1.290000	8.728000	0.990516	0.543622
1.300000	8.666000	0.992617	0.548223
1.310000	8.606000	0.994828	0.552635
1.320000	8.551000	0.997143	0.556855
1.330000	8.503000	0.999551	0.560881
1.340000	8.465000	1.002043	0.564710
1.350000	8.437000	1.004607	0.568339
1.360000	8.418000	1.007228	0.571766
1.370000	8.406000	1.009904	0.574989
1.380000	8.397000	1.012649	0.578005
1.390000	8.391000	1.015457	0.580813
1.400000	8.382000	1.018326	0.583411
1.410000	8.369000	1.021249	0.585796
1.420000	8.350000	1.024221	0.587969
1.430000	8.323000	1.027236	0.589927
1.440000	8.289000	1.030288	0.591670
1.450000	8.249000	1.033368	0.593198
1.460000	8.204000	1.036469	0.594510
1.470000	8.156000	1.039583	0.595605
1.480000	8.109000	1.042702	0.596484
1.490000	8.064000	1.045815	0.597147
1.500000	8.024000	1.048913	0.597594
1.510000	7.991000	1.051985	0.597827
1.520000	7.964000	1.055021	0.597846
1.530000	7.944000	1.058009	0.597651
1.540000	7.931000	1.060944	0.597246
1.550000	7.923000	1.063828	0.596629
1.560000	7.917000	1.066653	0.595803
1.570000	7.912000	1.069413	0.594770
1.580000	7.907000	1.072100	0.593531
1.590000	7.900000	1.074708	0.592088
1.600000	7.889000	1.077230	0.590443
1.610000	7.876000	1.079659	0.588599
1.620000	7.860000	1.081990	0.586558
1.630000	7.842000	1.084216	0.584321
1.640000	7.824000	1.086332	0.581893
1.650000	7.807000	1.088331	0.579276
1.660000	7.793000	1.090208	0.576472
1.670000	7.783000	1.091957	0.573485
1.680000	7.779000	1.093573	0.570318
1.690000	7.780000	1.095050	0.566975
1.700000	7.787000	1.096384	0.563459
1.710000	7.799000	1.097570	0.559773
1.720000	7.815000	1.098603	0.555923
1.730000	7.833000	1.099478	0.551911
1.740000	7.853000	1.100191	0.547742
1.750000	7.872000	1.100738	0.543420
1.760000	7.890000	1.101121	0.538949
1.770000	7.907000	1.101342	0.534332
1.780000	7.920000	1.101400	0.529574
1.790000	7.932000	1.101293	0.524680
1.800000	7.941000	1.101020	0.519653
1.810000	7.949000	1.100579	0.514498
1.820000	7.956000	1.099968	0.509219
1.830000	7.962000	1.099184	0.503822
1.840000	7.968000	1.098226	0.498311
1.850000	7.975000	1.097092	0.492690
1.860000	7.981000	1.095779	0.486964
1.870000	7.986000	1.094284	0.481139
1.880000	7.989000	1.092604	0.475218
1.890000	7.990000	1.090737	0.469206
1.900000	7.988000	1.088680	0.463108
1.910000	7.982000	1.086430	0.456930
1.920000	7.971000	1.083982	0.450676
1.930000	7.957000	1.081335	0.444350
1.940000	7.938000	1.078483	0.437959
1.950000	7.916000	1.075424	0.431506
1.960000	7.891000	1.072154	0.424997
1.970000	7.867000	1.068670	0.418437
1.980000	7.842000	1.064980	0.411828
1.990000	7.820000	1.061078	0.405174
2.000000	7.800000	1.056959	0.398481
2.010000	7.784000	1.052618	0.391754
2.020000	7.772000	1.048049	0.385000
2.030000	7.763000	1.043250	0.378222
2.040000	7.756000	1.038216	0.371427
2.050000	7.750000	1.032944	0.364618
2.060000	7.745000	1.027432	0.357801
2.070000	7.738000	1.021677	0.350980
2.080000	7.728000	1.015678	0.344161
2.090000	7.715000	1.009435	0.337347
2.100000	7.698000	1.002947	0.330542
2.110000	7.676000	0.996214	0.323751
2.120000	7.652000	0.989237	0.316978
2.130000	7.624000	0.982016	0.310226
2.140000	7.595000	0.974555	0.303500
2.150000	7.566000	0.966855	0.296803
2.160000	7.538000	0.958920	0.290139
2.170000	7.513000	0.950752	0.283511
2.180000	7.492000	0.942356	0.276922
2.190000	7.475000	0.933736	0.270375
2.200000	7.462000	0.924897	0.263874
2.210000	7.454000	0.915846	0.257421
2.220000	7.449000	0.906587	0.251019
2.230000	7.448000	0.897128	0.244671
2.240000	7.449000	0.887477	0.238379
2.250000	7.451000	0.877640	0.232146
2.260000	7.454000	0.867626	0.225974
2.270000	7.456000	0.857445	0.219864
2.280000	7.458000	0.847112	0.213820
2.290000	7.459000	0.836640	0.207845
2.300000	7.459000	0.826037	0.201939
2.310000	7.457000	0.815306	0.196107
2.320000	7.455000	0.804453	0.190349
2.330000	7.452000	0.793484	0.184668
2.340000	7.448000	0.782406	0.179066
2.350000	7.443000	0.771225	0.173544
2.360000	7.436000	0.759949	0.168105
2.370000	7.428000	0.748585	0.162749
2.380000	7.418000	0.737141	0.157478
2.390000	7.406000	0.725625	0.152294
2.400000	7.392000	0.714046	0.147197
2.410000	7.377000	0.702414	0.142188
2.420000	7.361000	0.690737	0.137270
2.430000	7.347000	0.679025	0.132441
2.440000	7.335000	0.667289	0.127704
2.450000	7.327000	0.655540	0.123059
2.460000	7.325000	0.643788	0.118507
2.470000	7.331000	0.632044	0.114047
2.480000	7.347000	0.620322	0.109680
2.490000	7.374000	0.608632	0.105406
2.500000	7.411000	0.596987	0.101226
2.510000	7.457000	0.585400	0.097139
2.520000	7.513000	0.573885	0.093145
2.530000	7.574000	0.562455	0.089244
2.540000	7.638000	0.551125	0.085435
2.550000	7.702000	0.539908	0.081719
2.560000	7.762000	0.528820	0.078094
2.570000	7.814000	0.517887	0.074561
2.580000	7.856000	0.507135	0.071124
2.590000	7.885000	0.496573	0.067779
2.600000	7.901000	0.486210	0.064528
2.610000	7.903000	0.476054	0.061370
2.620000	7.893000	0.466113	0.058302
2.630000	7.871000	0.456392	0.055326
2.640000	7.842000	0.446899	0.052441
2.650000	7.807000	0.437638	0.049645
2.660000	7.772000	0.428615	0.046939
2.670000	7.738000	0.419834	0.044321
2.680000	7.710000	0.411299	0.041792
2.690000	7.688000	0.403011	0.039352
2.700000	7.675000	0.394975	0.036999
2.710000	7.670000	0.387191	0.034734
2.720000	7.673000	0.379660	0.032556
2.730000	7.683000	0.372384	0.030465
2.740000	7.697000	0.365361	0.028462
2.750000	7.713000	0.358592	0.026545
2.760000	7.728000	0.352074	0.024715
2.770000	7.742000	0.345805	0.022972
2.780000	7.751000	0.339783	0.021316
2.790000	7.755000	0.334005	0.019747
2.800000	7.753000	0.328466	0.018265
2.810000	7.747000	0.323164	0.016870
2.820000	7.736000	0.318116	0.015560
2.830000	7.723000	0.313325	0.014335
2.840000	7.710000	0.308791	0.013194
2.850000	7.698000	0.304515	0.012136
2.860000	7.688000	0.300497	0.011162
2.870000	7.684000	0.296738	0.010271
2.880000	7.684000	0.293237	0.009462
2.890000	7.691000	0.289995	0.008736
2.900000	7.703000	0.287014	0.008090
2.910000	7.720000	0.284293	0.007527
2.920000	7.742000	0.281833	0.007044
2.930000	7.767000	0.279636	0.006642
2.940000	7.794000	0.277702	0.006321
2.950000	7.822000	0.276031	0.006079
2.960000	7.851000	0.274626	0.005918
2.970000	7.880000	0.273488	0.005836
2.980000	7.908000	0.272617	0.005834
2.990000	7.934000	0.272016	0.005911
3.000000	7.960000	0.271684	0.006067
3.010000	7.984000	0.271625	0.006302
3.020000	8.006000	0.271840	0.006616
3.030000	8.027000	0.272330	0.007008
3.040000	8.044000	0.273098	0.007478
3.050000	8.059000	0.274143	0.008027
3.060000	8.069000	0.275457	0.008654
3.070000	8.075000	0.277033	0.009359
3.080000	8.075000	0.278864	0.010142
3.090000	8.068000	0.280942	0.011001
3.100000	8.056000	0.283261	0.011938
3.110000	8.038000	0.285812	0.012952
3.120000	8.015000	0.288588	0.014043
3.130000	7.989000	0.291582	0.015210
3.140000	7.961000	0.294787	0.016454
3.150000	7.934000	0.298193	0.017774
3.160000	7.909000	0.301794	0.019171
3.170000	7.889000	0.305583	0.020643
3.180000	7.875000	0.309550	0.022192
3.190000	7.869000	0.313688	0.023816
3.200000	7.870000	0.317989	0.025516
3.210000	7.880000	0.322445	0.027291
3.220000	7.896000	0.327048	0.029143
3.230000	7.917000	0.331790	0.031069
3.240000	7.941000	0.336663	0.033072
3.250000	7.966000	0.341658	0.035149
3.260000	7.988000	0.346780	0.037302
3.270000	8.005000	0.352040	0.039529
3.280000	8.015000	0.357429	0.041829
3.290000	8.017000	0.362938	0.044203
3.300000	8.010000	0.368559	0.046650
3.310000	7.995000	0.374284	0.049169
3.320000	7.972000	0.380105	0.051760
3.330000	7.943000	0.386015	0.054421
3.340000	7.911000	0.392005	0.057154
3.350000	7.879000	0.398069	0.059956
3.360000	7.848000	0.404199	0.062827
3.370000	7.822000	0.410388	0.065767
3.380000	7.802000	0.416629	0.068775
3.390000	7.791000	0.422916	0.071850
3.400000	7.788000	0.429242	0.074990
3.410000	7.793000	0.435601	0.078196
3.420000	7.807000	0.441986	0.081467
3.430000	7.827000	0.448392	0.084801
3.440000	7.851000	0.454812	0.088198
3.450000	7.878000	0.461242	0.091656
3.460000	7.904000	0.467675	0.095175
3.470000	7.929000	0.474107	0.098754
3.480000	7.948000	0.480545	0.102391
3.490000	7.962000	0.487003	0.106085
3.500000	7.969000	0.493474	0.109834
3.510000	7.968000	0.499950	0.113637
3.520000	7.959000	0.506424	0.117493
3.530000	7.943000	0.512889	0.121400
3.540000	7.920000	0.519338	0.125355
3.550000	7.893000	0.525766	0.129359
3.560000	7.862000	0.532167	0.133408
3.570000	7.829000	0.538536	0.137502
3.580000	7.796000	0.544868	0.141638
3.590000	7.766000	0.551158	0.145815
3.600000	7.738000	0.557402	0.150031
3.610000	7.716000	0.563597	0.154284
3.620000	7.701000	0.569740	0.158572
3.630000	7.693000	0.575826	0.162893
3.640000	7.694000	0.581855	0.167246
3.650000	7.704000	0.587823	0.171627
3.660000	7.723000	0.593730	0.176036
3.670000	7.750000	0.599572	0.180471
3.680000	7.786000	0.605351	0.184928
3.690000	7.827000	0.611064	0.189405
3.700000	7.874000	0.616712	0.193902
3.710000	7.924000	0.622295	0.198414
3.720000	7.974000	0.627835	0.202941
3.730000	8.023000	0.633347	0.207480
3.740000	8.068000	0.638836	0.212029
3.750000	8.107000	0.644302	0.216584
3.760000	8.138000	0.649748	0.221144
3.770000	8.161000	0.655175	0.225705
3.780000	8.175000	0.660584	0.230265
3.790000	8.179000	0.665974	0.234821
3.800000	8.173000	0.671347	0.239372
3.810000	8.160000	0.676701	0.243913
3.820000	8.139000	0.682036	0.248444
3.830000	8.113000	0.687350	0.252961
3.840000	8.083000	0.692642	0.257461
3.850000	8.051000	0.697908	0.261943
3.860000	8.019000	0.703147	0.266405
3.870000	7.986000	0.708356	0.270843
3.880000	7.956000	0.713530	0.275255
3.890000	7.927000	0.718666	0.279639
3.900000	7.900000	0.723759	0.283993
3.910000	7.875000	0.728804	0.288315
3.920000	7.852000	0.733796	0.292601
3.930000	7.831000	0.738730	0.296850
3.940000	7.811000	0.743599	0.301060
3.950000	7.794000	0.748396	0.305229
3.960000	7.778000	0.753114	0.309353
3.970000	7.764000	0.757747	0.313432
3.980000	7.753000	0.762285	0.317462
3.990000	7.746000	0.766721	0.321443
4.000000	7.743000	0.771074	0.325370
4.010000	7.744000	0.775353	0.329243
4.020000	7.750000	0.779560	0.333057
4.030000	7.761000	0.783696	0.336813
4.040000	7.776000	0.787761	0.340506
4.050000	7.793000	0.791757	0.344136
4.060000	7.812000	0.795685	0.347701
4.070000	7.831000	0.799543	0.351197
4.080000	7.848000	0.803334	0.354625
4.090000	7.860000	0.807056	0.357980
4.100000	7.867000	0.810710	0.361263
4.110000	7.867000	0.814294	0.364470
4.120000	7.858000	0.817808	0.367600
4.130000	7.842000	0.821251	0.370652
4.140000	7.818000	0.824621	0.373624
4.150000	7.787000	0.827918	0.376514
4.160000	7.751000	0.831140	0.379320
4.170000	7.712000	0.834284	0.382041
4.180000	7.671000	0.837349	0.384675
4.190000	7.630000	0.840333	0.387221
4.200000	7.593000	0.843232	0.389678
4.210000	7.559000	0.846044	0.392044
4.220000	7.531000	0.848765	0.394317
4.230000	7.509000	0.851394	0.396496
4.240000	7.492000	0.853926	0.398580
4.250000	7.482000	0.856356	0.400568
4.260000	7.477000	0.858677	0.402460
4.270000	7.476000	0.860890	0.404254
4.280000	7.479000	0.863000	0.405949
4.290000	7.484000	0.865009	0.407545
4.300000	7.491000	0.866920	0.409040
4.310000	7.498000	0.868736	0.410435
4.320000	7.506000	0.870459	0.411728
4.330000	7.514000	0.872091	0.412918
4.340000	7.522000	0.873633	0.414006
4.350000	7.529000	0.875085	0.414990
4.360000	7.534000	0.876450	0.415870
4.370000	7.538000	0.877726	0.416646
4.380000	7.539000	0.878915	0.417317
4.390000	7.536000	0.880014	0.417884
4.400000	7.528000	0.881025	0.418346
4.410000	7.515000	0.881944	0.418702
4.420000	7.494000	0.882771	0.418954
4.430000	7.466000	0.883504	0.419100
4.440000	7.430000	0.884141	0.419142
4.450000	7.387000	0.884678	0.419078
4.460000	7.336000	0.885113	0.418910
4.470000	7.281000	0.885443	0.418638
4.480000	7.223000	0.885662	0.418261
4.490000	7.164000	0.885748	0.417781
4.500000	7.109000	0.885689	0.417198
4.510000	7.060000	0.885485	0.416512
4.520000	7.021000	0.885134	0.415724
4.530000	6.995000	0.884637	0.414834
4.540000	6.982000	0.883995	0.413844
4.550000	6.985000	0.883211	0.412754
4.560000	7.003000	0.882285	0.411565
4.570000	7.036000	0.881224	0.410277
4.580000	7.081000	0.880029	0.408892
4.590000	7.136000	0.878708	0.407410
4.600000	7.196000	0.877266	0.405832
4.610000	7.259000	0.875709	0.404160
4.620000	7.319000	0.874046	0.402394
4.630000	7.373000	0.872284	0.400535
4.640000	7.419000	0.870434	0.398584
4.650000	7.452000	0.868505	0.396543
4.660000	7.472000	0.866508	0.394413
4.670000	7.479000	0.864455	0.392195
4.680000	7.471000	0.862352	0.389890
4.690000	7.452000	0.860187	0.387500
4.700000	7.423000	0.857954	0.385026
4.710000	7.387000	0.855648	0.382471
4.720000	7.347000	0.853264	0.379835
4.730000	7.305000	0.850799	0.377121
4.740000	7.267000	0.848251	0.374329
4.750000	7.233000	0.845616	0.371462
4.760000	7.206000	0.842894	0.368521
4.770000	7.188000	0.840084	0.365508
4.780000	7.180000	0.837184	0.362425
4.790000	7.181000	0.834195	0.359273
4.800000	7.192000	0.831118	0.356056
4.810000	7.211000	0.827953	0.352774
4.820000	7.236000	0.824705	0.349429
4.830000	7.267000	0.821373	0.346025
4.840000	7.300000	0.817963	0.342563
4.850000	7.333000	0.814477	0.339044
4.860000	7.364000	0.810920	0.335472
4.870000	7.392000	0.807298	0.331849
4.880000	7.413000	0.803626	0.328177
4.890000	7.427000	0.799909	0.324457
4.900000	7.433000	0.796145	0.320692
4.910000	7.430000	0.792332	0.316884
4.920000	7.419000	0.788469	0.313035
4.930000	7.400000	0.784553	0.309148
4.940000	7.375000	0.780582	0.305225
4.950000	7.347000	0.776557	0.301268
4.960000	7.316000	0.772476	0.297279
4.970000	7.286000	0.768337	0.293260
4.980000	7.260000	0.764141	0.289214
4.990000	7.239000	0.759887	0.285144
5.000000	7.226000	0.755574	0.281052
5.010000	7.223000	0.751203	0.276939
5.020000	7.229000	0.746774	0.272809
5.030000	7.247000	0.742288	0.268664
5.040000	7.273000	0.737744	0.264506
5.050000	7.308000	0.733143	0.260338
5.060000	7.348000	0.728488	0.256162
5.070000	7.392000	0.723778	0.251981
5.080000	7.436000	0.719028	0.247797
5.090000	7.478000	0.714258	0.243613
5.100000	7.514000	0.709472	0.239430
5.110000	7.544000	0.704674	0.235251
5.120000	7.565000	0.699871	0.231078
5.130000	7.577000	0.695064	0.226913
5.140000	7.580000	0.690257	0.222758
5.150000	7.576000	0.685453	0.218616
5.160000	7.567000	0.680654	0.214488
5.170000	7.553000	0.675863	0.210378
5.180000	7.538000	0.671081	0.206287
5.190000	7.524000	0.666308	0.202217
5.200000	7.513000	0.661546	0.198170
5.210000	7.505000	0.656795	0.194150
5.220000	7.502000	0.652055	0.190157
5.230000	7.502000	0.647324	0.186194
5.240000	7.506000	0.642603	0.182264
5.250000	7.511000	0.637889	0.178367
5.260000	7.515000	0.633181	0.174508
5.270000	7.518000	0.628475	0.170687
5.280000	7.516000	0.623770	0.166907
5.290000	7.509000	0.619063	0.163169
5.300000	7.496000	0.614349	0.159477
5.310000	7.478000	0.609629	0.155832
5.320000	7.454000	0.604905	0.152234
5.330000	7.427000	0.600176	0.148686
5.340000	7.399000	0.595444	0.145189
5.350000	7.372000	0.590710	0.141746
5.360000	7.349000	0.585974	0.138358
5.370000	7.332000	0.581238	0.135027
5.380000	7.323000	0.576504	0.131754
5.390000	7.322000	0.571774	0.128540
5.400000	7.331000	0.567050	0.125388
5.410000	7.348000	0.562336	0.122298
5.420000	7.372000	0.557633	0.119272
5.430000	7.400000	0.552946	0.116312
5.440000	7.429000	0.548278	0.113417
5.450000	7.458000	0.543633	0.110590
5.460000	7.482000	0.539016	0.107832
5.470000	7.501000	0.534430	0.105143
5.480000	7.512000	0.529880	0.102525
5.490000	7.515000	0.525372	0.099979
5.500000	7.511000	0.520911	0.097505
5.510000	7.501000	0.516503	0.095104
5.520000	7.486000	0.512153	0.092777
