# Time (s), Wind Speed (m/s), Blade Displacement (m), Tower Displacement (m)
0.000000	19.053000	0.000000	0.000000
0.010000	19.079000	0.000332	0.000000
0.020000	19.107000	0.001327	0.000000
0.030000	19.136000	0.002981	0.000001
0.040000	19.164000	0.005287	0.000003
0.050000	19.192000	0.008240	0.000006
0.060000	19.221000	0.011834	0.000013
0.070000	19.251000	0.016060	0.000023
0.080000	19.284000	0.020911	0.000039
0.090000	19.321000	0.026377	0.000062
0.100000	19.364000	0.032449	0.000093
0.110000	19.413000	0.039117	0.000135
0.120000	19.467000	0.046372	0.000189
0.130000	19.524000	0.054203	0.000258
0.140000	19.582000	0.062598	0.000344
0.150000	19.637000	0.071545	0.000450
0.160000	19.685000	0.081035	0.000579
0.170000	19.722000	0.091055	0.000732
0.180000	19.744000	0.101587	0.000914
0.190000	19.749000	0.112613	0.001128
0.200000	19.734000	0.124114	0.001377
0.210000	19.701000	0.136070	0.001663
0.220000	19.651000	0.148459	0.001992
0.230000	19.590000	0.161260	0.002365
0.240000	19.521000	0.174451	0.002787
0.250000	19.453000	0.188006	0.003262
0.260000	19.392000	0.201902	0.003793
0.270000	19.345000	0.216114	0.004384
0.280000	19.318000	0.230615	0.005039
0.290000	19.315000	0.245378	0.005762
0.300000	19.339000	0.260384	0.006557
0.310000	19.391000	0.275615	0.007428
0.320000	19.469000	0.291057	0.008378
0.330000	19.569000	0.306694	0.009412
0.340000	19.688000	0.322510	0.010534
0.350000	19.818000	0.338492	0.011748
0.360000	19.954000	0.354623	0.013058
0.370000	20.089000	0.370889	0.014467
0.380000	20.217000	0.387275	0.015979
0.390000	20.335000	0.403768	0.017599
0.400000	20.439000	0.420352	0.019329
0.410000	20.526000	0.437014	0.021173
0.420000	20.595000	0.453740	0.023134
0.430000	20.646000	0.470516	0.025216
0.440000	20.679000	0.487328	0.027422
0.450000	20.695000	0.504164	0.029756
0.460000	20.693000	0.521010	0.032219
0.470000	20.674000	0.537852	0.034815
0.480000	20.637000	0.554661	0.037547
0.490000	20.582000	0.571408	0.040417
0.500000	20.509000	0.588063	0.043429
0.510000	20.416000	0.604601	0.046585
0.520000	20.306000	0.620994	0.049888
0.530000	20.179000	0.637218	0.053339
0.540000	20.039000	0.653249	0.056941
0.550000	19.890000	0.669065	0.060696
0.560000	19.738000	0.684642	0.064604
0.570000	19.590000	0.699962	0.068667
0.580000	19.454000	0.715003	0.072886
0.590000	19.335000	0.729747	0.077262
0.600000	19.241000	0.744177	0.081795
0.610000	19.178000	0.758277	0.086486
0.620000	19.147000	0.772030	0.091334
0.630000	19.151000	0.785423	0.096340
0.640000	19.186000	0.798443	0.101502
0.650000	19.250000	0.811077	0.106821
0.660000	19.334000	0.823314	0.112295
0.670000	19.432000	0.835144	0.117924
0.680000	19.534000	0.846578	0.123704
0.690000	19.632000	0.857629	0.129634
0.700000	19.717000	0.868296	0.135712
0.710000	19.784000	0.878579	0.141937
0.720000	19.829000	0.888478	0.148305
0.730000	19.849000	0.897994	0.154814
0.740000	19.847000	0.907125	0.161462
0.750000	19.826000	0.915875	0.168246
0.760000	19.790000	0.924244	0.175162
0.770000	19.747000	0.932233	0.182206
0.780000	19.703000	0.939845	0.189376
0.790000	19.663000	0.947082	0.196667
0.800000	19.632000	0.953946	0.204074
0.810000	19.614000	0.960441	0.211593
0.820000	19.608000	0.966569	0.219220
0.830000	19.612000	0.972334	0.226949
0.840000	19.624000	0.977739	0.234776
0.850000	19.638000	0.982790	0.242693
0.860000	19.649000	0.987491	0.250697
0.870000	19.650000	0.991846	0.258780
0.880000	19.639000	0.995860	0.266937
0.890000	19.612000	0.999540	0.275160
0.900000	19.567000	1.002890	0.283443
0.910000	19.506000	1.005917	0.291780
0.920000	19.433000	1.008628	0.300161
0.930000	19.351000	1.011028	0.308582
0.940000	19.268000	1.013118	0.317035
0.950000	19.189000	1.014906	0.325516
0.960000	19.121000	1.016400	0.334016
0.970000	19.068000	1.017609	0.342528
0.980000	19.034000	1.018545	0.351046
0.990000	19.020000	1.019218	0.359560
1.000000	19.025000	1.019641	0.368065
1.010000	19.045000	1.019824	0.376553
1.020000	19.077000	1.019780	0.385015
1.030000	19.115000	1.019524	0.393445
1.040000	19.153000	1.019070	0.401835
1.050000	19.188000	1.018431	0.410176
1.060000	19.215000	1.017622	0.418462
1.070000	19.232000	1.016661	0.426685
1.080000	19.241000	1.015563	0.434837
1.090000	19.242000	1.014345	0.442909
1.100000	19.241000	1.013025	0.450895
1.110000	19.242000	1.011621	0.458786
1.120000	19.251000	1.010153	0.466574
1.130000	19.272000	1.008623	0.474252
1.140000	19.309000	1.007041	0.481814
1.150000	19.365000	1.005428	0.489252
1.160000	19.438000	1.003803	0.496558
1.170000	19.527000	1.002185	0.503725
1.180000	19.626000	1.000594	0.510746
1.190000	19.728000	0.999046	0.517615
1.200000	19.826000	0.997556	0.524325
1.210000	19.911000	0.996141	0.530869
1.220000	19.976000	0.994813	0.537241
1.230000	20.015000	0.993587	0.543435
1.240000	20.023000	0.992473	0.549445
1.250000	19.999000	0.991483	0.555266
1.260000	19.944000	0.990626	0.560891
1.270000	19.862000	0.989911	0.566316
1.280000	19.760000	0.989346	0.571535
1.290000	19.644000	0.988925	0.576543
1.300000	19.523000	0.988637	0.581337
1.310000	19.405000	0.988482	0.585912
1.320000	19.297000	0.988460	0.590262
1.330000	19.205000	0.988571	0.594385
1.340000	19.131000	0.988813	0.598276
1.350000	19.076000	0.989187	0.601933
1.360000	19.039000	0.989691	0.605351
1.370000	19.016000	0.990326	0.608528
1.380000	19.000000	0.991091	0.611462
1.390000	18.988000	0.991984	0.614149
1.400000	18.972000	0.993005	0.616589
1.410000	18.947000	0.994153	0.618779
1.420000	18.910000	0.995426	0.620717
1.430000	18.858000	0.996824	0.622403
1.440000	18.792000	0.998346	0.623836
1.450000	18.713000	0.999984	0.625015
1.460000	18.625000	1.001727	0.625938
1.470000	18.533000	1.003568	0.626607
1.480000	18.440000	1.005500	0.627020
1.490000	18.353000	1.007514	0.627179
1.500000	18.276000	1.009605	0.627082
1.510000	18.210000	1.011763	0.626732
1.520000	18.159000	1.013983	0.626129
1.530000	18.121000	1.016255	0.625273
1.540000	18.096000	1.018574	0.624168
1.550000	18.080000	1.020930	0.622814
1.560000	18.069000	1.023317	0.621213
1.570000	18.061000	1.025727	0.619368
1.580000	18.051000	1.028152	0.617282
1.590000	18.038000	1.030584	0.614956
1.600000	18.018000	1.033016	0.612394
1.610000	17.992000	1.035439	0.609600
1.620000	17.961000	1.037846	0.606577
1.630000	17.927000	1.040226	0.603328
1.640000	17.892000	1.042568	0.599856
1.650000	17.859000	1.044862	0.596166
1.660000	17.832000	1.047100	0.592261
1.670000	17.814000	1.049272	0.588146
1.680000	17.806000	1.051371	0.583825
1.690000	17.809000	1.053387	0.579303
1.700000	17.823000	1.055313	0.574584
1.710000	17.846000	1.057140	0.569674
1.720000	17.878000	1.058861	0.564577
1.730000	17.915000	1.060468	0.559298
1.740000	17.954000	1.061954	0.553843
1.750000	17.993000	1.063313	0.548216
1.760000	18.029000	1.064536	0.542424
1.770000	18.062000	1.065618	0.536473
1.780000	18.089000	1.066552	0.530367
1.790000	18.112000	1.067332	0.524113
1.800000	18.131000	1.067953	0.517718
1.810000	18.147000	1.068409	0.511186
1.820000	18.161000	1.068693	0.504523
1.830000	18.174000	1.068798	0.497736
1.840000	18.187000	1.068714	0.490830
1.850000	18.199000	1.068433	0.483813
1.860000	18.212000	1.067947	0.476691
1.870000	18.222000	1.067247	0.469469
1.880000	18.230000	1.066326	0.462155
1.890000	18.232000	1.065176	0.454755
1.900000	18.229000	1.063790	0.447275
1.910000	18.217000	1.062159	0.439721
1.920000	18.197000	1.060276	0.432100
1.930000	18.168000	1.058134	0.424418
1.940000	18.132000	1.055726	0.416680
1.950000	18.089000	1.053046	0.408894
1.960000	18.042000	1.050085	0.401065
1.970000	17.994000	1.046839	0.393199
1.980000	17.947000	1.043299	0.385303
1.990000	17.904000	1.039461	0.377382
2.000000	17.866000	1.035317	0.369442
2.010000	17.835000	1.030862	0.361491
2.020000	17.811000	1.026090	0.353532
2.030000	17.794000	1.021002	0.345571
2.040000	17.781000	1.015601	0.337611
2.050000	17.770000	1.009881	0.329660
2.060000	17.760000	1.003837	0.321721
2.070000	17.747000	0.997467	0.313803
2.080000	17.728000	0.990767	0.305910
2.090000	17.703000	0.983734	0.298048
2.100000	17.670000	0.976367	0.290222
2.110000	17.629000	0.968664	0.282437
2.120000	17.581000	0.960626	0.274698
2.130000	17.527000	0.952251	0.267010
2.140000	17.471000	0.943542	0.259377
2.150000	17.414000	0.934499	0.251804
2.160000	17.361000	0.925125	0.244294
2.170000	17.312000	0.915423	0.236851
2.180000	17.270000	0.905395	0.229480
2.190000	17.237000	0.895046	0.222183
2.200000	17.213000	0.884381	0.214965
2.210000	17.197000	0.873405	0.207827
2.220000	17.189000	0.862125	0.200773
2.230000	17.187000	0.850546	0.193806
2.240000	17.189000	0.838676	0.186928
2.250000	17.194000	0.826524	0.180141
2.260000	17.200000	0.814098	0.173448
2.270000	17.205000	0.801407	0.166850
2.280000	17.209000	0.788462	0.160350
2.290000	17.211000	0.775273	0.153948
2.300000	17.211000	0.761850	0.147646
2.310000	17.210000	0.748207	0.141445
2.320000	17.206000	0.734356	0.135346
2.330000	17.200000	0.720302	0.129350
2.340000	17.193000	0.706042	0.123458
2.350000	17.183000	0.691592	0.117672
2.360000	17.170000	0.676969	0.111992
2.370000	17.155000	0.662188	0.106419
2.380000	17.135000	0.647266	0.100954
2.390000	17.112000	0.632220	0.095597
2.400000	17.085000	0.617066	0.090348
2.410000	17.056000	0.601820	0.085209
2.420000	17.026000	0.586501	0.080179
2.430000	16.997000	0.571123	0.075259
2.440000	16.973000	0.555705	0.070447
2.450000	16.958000	0.540263	0.065745
2.460000	16.955000	0.524815	0.061151
2.470000	16.968000	0.509376	0.056666
2.480000	17.000000	0.493966	0.052289
2.490000	17.052000	0.478600	0.048018
2.500000	17.125000	0.463297	0.043854
2.510000	17.217000	0.448073	0.039796
2.520000	17.326000	0.432947	0.035842
2.530000	17.446000	0.417936	0.031991
2.540000	17.573000	0.403057	0.028242
2.550000	17.698000	0.388329	0.024593
2.560000	17.816000	0.373769	0.021044
2.570000	17.919000	0.359395	0.017592
2.580000	18.002000	0.345226	0.014236
2.590000	18.060000	0.331279	0.010973
2.600000	18.091000	0.317572	0.007802
2.610000	18.096000	0.304125	0.004721
2.620000	18.075000	0.290954	0.001727
2.630000	18.033000	0.278079	-0.001182
2.640000	17.975000	0.265518	-0.004008
2.650000	17.908000	0.253290	-0.006755
2.660000	17.839000	0.241392	-0.009420
2.670000	17.774000	0.229813	-0.012002
2.680000	17.718000	0.218562	-0.014502
2.690000	17.676000	0.207646	-0.016921
2.700000	17.650000	0.197073	-0.019261
2.710000	17.641000	0.186851	-0.021522
2.720000	17.647000	0.176987	-0.023707
2.730000	17.667000	0.167486	-0.025816
2.740000	17.694000	0.158356	-0.027850
2.750000	17.726000	0.149603	-0.029811
2.760000	17.757000	0.141233	-0.031699
2.770000	17.784000	0.133250	-0.033515
2.780000	17.802000	0.125660	-0.035259
2.790000	17.810000	0.118467	-0.036934
2.800000	17.807000	0.111677	-0.038539
2.810000	17.795000	0.105293	-0.040075
2.820000	17.775000	0.099319	-0.041542
2.830000	17.749000	0.093759	-0.042941
2.840000	17.723000	0.088615	-0.044273
2.850000	17.700000	0.083891	-0.045537
2.860000	17.682000	0.079589	-0.046735
2.870000	17.673000	0.075711	-0.047865
2.880000	17.674000	0.072259	-0.048929
2.890000	17.687000	0.069235	-0.049927
2.900000	17.711000	0.066640	-0.050859
2.910000	17.745000	0.064475	-0.051723
2.920000	17.788000	0.062740	-0.052522
2.930000	17.838000	0.061437	-0.053253
2.940000	17.892000	0.060564	-0.053918
2.950000	17.948000	0.060121	-0.054516
2.960000	18.005000	0.060110	-0.055045
2.970000	18.061000	0.060536	-0.055506
2.980000	18.116000	0.061396	-0.055896
2.990000	18.169000	0.062689	-0.056217
3.000000	18.219000	0.064412	-0.056467
3.010000	18.267000	0.066563	-0.056645
3.020000	18.311000	0.069137	-0.056751
3.030000	18.351000	0.072130	-0.056785
3.040000	18.386000	0.075537	-0.056744
3.050000	18.415000	0.079350	-0.056629
3.060000	18.436000	0.083564	-0.056439
3.070000	18.447000	0.088172	-0.056171
3.080000	18.447000	0.093165	-0.055826
3.090000	18.435000	0.098534	-0.055401
3.100000	18.412000	0.104270	-0.054897
3.110000	18.377000	0.110363	-0.054310
3.120000	18.332000	0.116802	-0.053641
3.130000	18.281000	0.123575	-0.052887
3.140000	18.227000	0.130670	-0.052047
3.150000	18.174000	0.138074	-0.051119
3.160000	18.125000	0.145774	-0.050102
3.170000	18.086000	0.153755	-0.048994
3.180000	18.059000	0.162002	-0.047793
3.190000	18.047000	0.170500	-0.046497
3.200000	18.051000	0.179231	-0.045104
3.210000	18.069000	0.188186	-0.043613
3.220000	18.102000	0.197371	-0.042024
3.230000	18.144000	0.206774	-0.040336
3.240000	18.192000	0.216382	-0.038547
3.250000	18.240000	0.226181	-0.036655
3.260000	18.283000	0.236159	-0.034660
3.270000	18.317000	0.246303	-0.032559
3.280000	18.338000	0.256599	-0.030351
3.290000	18.342000	0.267035	-0.028036
3.300000	18.329000	0.277598	-0.025612
3.310000	18.299000	0.288275	-0.023078
3.320000	18.254000	0.299053	-0.020432
3.330000	18.199000	0.309919	-0.017675
3.340000	18.137000	0.320861	-0.014805
3.350000	18.073000	0.331865	-0.011822
3.360000	18.013000	0.342920	-0.008725
3.370000	17.962000	0.354012	-0.005513
3.380000	17.924000	0.365130	-0.002186
3.390000	17.902000	0.376259	0.001257
3.400000	17.896000	0.387389	0.004816
3.410000	17.908000	0.398506	0.008491
3.420000	17.935000	0.409598	0.012282
3.430000	17.975000	0.420652	0.016190
3.440000	18.023000	0.431657	0.020214
3.450000	18.076000	0.442599	0.024355
3.460000	18.128000	0.453479	0.028612
3.470000	18.176000	0.464312	0.032983
3.480000	18.215000	0.475088	0.037468
3.490000	18.243000	0.485795	0.042066
3.500000	18.256000	0.496423	0.046777
3.510000	18.254000	0.506961	0.051600
3.520000	18.238000	0.517401	0.056534
3.530000	18.207000	0.527732	0.061578
3.540000	18.163000	0.537948	0.066729
3.550000	18.109000	0.548038	0.071988
3.560000	18.049000	0.557996	0.077353
3.570000	17.985000	0.567816	0.082820
3.580000	17.921000	0.577489	0.088390
3.590000	17.861000	0.587011	0.094059
3.600000	17.808000	0.596376	0.099826
3.610000	17.765000	0.605579	0.105688
3.620000	17.735000	0.614615	0.111643
3.630000	17.721000	0.623481	0.117688
3.640000	17.723000	0.632172	0.123820
3.650000	17.742000	0.640687	0.130037
3.660000	17.780000	0.649023	0.136335
3.670000	17.834000	0.657178	0.142711
3.680000	17.904000	0.665150	0.149162
3.690000	17.987000	0.672939	0.155684
3.700000	18.079000	0.680544	0.162274
3.710000	18.177000	0.687966	0.168928
3.720000	18.276000	0.695208	0.175641
3.730000	18.372000	0.702297	0.182412
3.740000	18.461000	0.709244	0.189236
3.750000	18.538000	0.716051	0.196108
3.760000	18.601000	0.722719	0.203025
3.770000	18.646000	0.729250	0.209982
3.780000	18.673000	0.735648	0.216975
3.790000	18.681000	0.741913	0.224000
3.800000	18.671000	0.748048	0.231051
3.810000	18.645000	0.754054	0.238126
3.820000	18.605000	0.759933	0.245218
3.830000	18.554000	0.765687	0.252324
3.840000	18.496000	0.771318	0.259439
3.850000	18.434000	0.776826	0.266559
3.860000	18.370000	0.782215	0.273678
3.870000	18.307000	0.787485	0.280793
3.880000	18.247000	0.792637	0.287898
3.890000	18.191000	0.797674	0.294988
3.900000	18.139000	0.802595	0.302060
3.910000	18.090000	0.807404	0.309108
3.920000	18.046000	0.812100	0.316127
3.930000	18.005000	0.816686	0.323112
3.940000	17.968000	0.821161	0.330059
3.950000	17.933000	0.825528	0.336962
3.960000	17.902000	0.829787	0.343817
3.970000	17.876000	0.833939	0.350618
3.980000	17.856000	0.837985	0.357360
3.990000	17.842000	0.841926	0.364039
4.000000	17.836000	0.845762	0.370648
4.010000	17.840000	0.849495	0.377184
4.020000	17.852000	0.853125	0.383640
4.030000	17.874000	0.856652	0.390011
4.040000	17.903000	0.860085	0.396294
4.050000	17.938000	0.863447	0.402486
4.060000	17.976000	0.866743	0.408582
4.070000	18.013000	0.869980	0.414579
4.080000	18.046000	0.873159	0.420471
4.090000	18.072000	0.876287	0.426253
4.100000	18.085000	0.879365	0.431921
4.110000	18.085000	0.882398	0.437470
4.120000	18.070000	0.885388	0.442897
4.130000	18.039000	0.888337	0.448197
4.140000	17.992000	0.891247	0.453366
4.150000	17.932000	0.894121	0.458401
4.160000	17.862000	0.896959	0.463297
4.170000	17.785000	0.899763	0.468052
4.180000	17.705000	0.902532	0.472662
4.190000	17.627000	0.905268	0.477123
4.200000	17.553000	0.907970	0.481433
4.210000	17.488000	0.910638	0.485588
4.220000	17.433000	0.913271	0.489586
4.230000	17.390000	0.915867	0.493424
4.240000	17.359000	0.918425	0.497100
4.250000	17.339000	0.920944	0.500611
4.260000	17.329000	0.923420	0.503954
4.270000	17.328000	0.925851	0.507128
4.280000	17.334000	0.928235	0.510130
4.290000	17.345000	0.930567	0.512959
4.300000	17.359000	0.932844	0.515614
4.310000	17.374000	0.935062	0.518091
4.320000	17.391000	0.937226	0.520391
4.330000	17.407000	0.939360	0.522511
4.340000	17.422000	0.941463	0.524451
4.350000	17.436000	0.943534	0.526209
4.360000	17.447000	0.945573	0.527784
4.370000	17.455000	0.947575	0.529176
4.380000	17.457000	0.949540	0.530382
4.390000	17.453000	0.951463	0.531403
4.400000	17.438000	0.953342	0.532239
4.410000	17.413000	0.955173	0.532888
4.420000	17.373000	0.956953	0.533352
4.430000	17.319000	0.958676	0.533629
4.440000	17.249000	0.960338	0.533721
4.450000	17.163000	0.961934	0.533627
4.460000	17.065000	0.963459	0.533349
4.470000	16.957000	0.964907	0.532887
4.480000	16.843000	0.966271	0.532241
4.490000	16.729000	0.967545	0.531414
4.500000	16.621000	0.968722	0.530406
4.510000	16.526000	0.969796	0.529219
4.520000	16.450000	0.970757	0.527854
4.530000	16.398000	0.971599	0.526314
4.540000	16.374000	0.972312	0.524599
4.550000	16.380000	0.972889	0.522713
4.560000	16.416000	0.973320	0.520657
4.570000	16.481000	0.973618	0.518433
4.580000	16.570000	0.973795	0.516042
4.590000	16.678000	0.973851	0.513486
4.600000	16.797000	0.973788	0.510768
4.610000	16.920000	0.973605	0.507891
4.620000	17.039000	0.973304	0.504857
4.630000	17.147000	0.972884	0.501669
4.640000	17.236000	0.972344	0.498329
4.650000	17.302000	0.971682	0.494841
4.660000	17.342000	0.970897	0.491207
4.670000	17.355000	0.969988	0.487430
4.680000	17.341000	0.968951	0.483514
4.690000	17.304000	0.967784	0.479461
4.700000	17.247000	0.966483	0.475275
4.710000	17.176000	0.965045	0.470959
4.720000	17.098000	0.963467	0.466517
4.730000	17.017000	0.961742	0.461951
4.740000	16.942000	0.959867	0.457267
4.750000	16.875000	0.957837	0.452466
4.760000	16.823000	0.955644	0.447554
4.770000	16.788000	0.953284	0.442534
4.780000	16.772000	0.950750	0.437409
4.790000	16.775000	0.948035	0.432184
4.800000	16.797000	0.945131	0.426862
4.810000	16.835000	0.942036	0.421449
4.820000	16.885000	0.938767	0.415946
4.830000	16.946000	0.935325	0.410358
4.840000	17.011000	0.931710	0.404689
4.850000	17.077000	0.927920	0.398943
4.860000	17.138000	0.923956	0.393124
4.870000	17.192000	0.919815	0.387237
4.880000	17.235000	0.915497	0.381286
4.890000	17.263000	0.911001	0.375274
4.900000	17.274000	0.906326	0.369206
4.910000	17.269000	0.901473	0.363086
4.920000	17.248000	0.896439	0.356917
4.930000	17.212000	0.891224	0.350704
4.940000	17.163000	0.885827	0.344451
4.950000	17.107000	0.880248	0.338162
4.960000	17.047000	0.874485	0.331839
4.970000	16.989000	0.868539	0.325489
4.980000	16.937000	0.862409	0.319113
4.990000	16.897000	0.856093	0.312716
5.000000	16.872000	0.849591	0.306303
5.010000	16.866000	0.842903	0.299875
5.020000	16.880000	0.836028	0.293438
5.030000	16.914000	0.828966	0.286995
5.040000	16.966000	0.821715	0.280549
5.050000	17.035000	0.814283	0.274104
5.060000	17.115000	0.806685	0.267663
5.070000	17.201000	0.798929	0.261230
5.080000	17.288000	0.791023	0.254807
5.090000	17.370000	0.782974	0.248400
5.100000	17.442000	0.774789	0.242010
5.110000	17.500000	0.766474	0.235642
5.120000	17.542000	0.758035	0.229299
5.130000	17.566000	0.749480	0.222984
5.140000	17.573000	0.740814	0.216700
5.150000	17.566000	0.732043	0.210450
5.160000	17.547000	0.723172	0.204237
5.170000	17.521000	0.714208	0.198065
5.180000	17.492000	0.705156	0.191935
5.190000	17.465000	0.696021	0.185851
5.200000	17.443000	0.686807	0.179815
5.210000	17.428000	0.677520	0.173830
5.220000	17.422000	0.668163	0.167898
5.230000	17.423000	0.658743	0.162022
5.240000	17.430000	0.649261	0.156204
5.250000	17.441000	0.639724	0.150446
5.260000	17.450000	0.630134	0.144750
5.270000	17.455000	0.620495	0.139119
5.280000	17.453000	0.610810	0.133553
5.290000	17.439000	0.601083	0.128056
5.300000	17.414000	0.591317	0.122629
5.310000	17.378000	0.581514	0.117274
5.320000	17.332000	0.571677	0.111992
5.330000	17.279000	0.561809	0.106785
5.340000	17.224000	0.551921	0.101655
5.350000	17.171000	0.542020	0.096601
