# Time (s), Wind Speed (m/s), Blade Displacement (m), Tower Displacement (m)
0.000000	15.810000	0.000000	0.000000
0.010000	15.830000	0.000400	0.000000
0.020000	15.852000	0.001596	0.000000
0.030000	15.874000	0.003580	0.000001
0.040000	15.897000	0.006342	0.000003
0.050000	15.919000	0.009875	0.000008
0.060000	15.941000	0.014166	0.000015
0.070000	15.964000	0.019205	0.000028
0.080000	15.990000	0.024979	0.000047
0.090000	16.020000	0.031475	0.000074
0.100000	16.053000	0.038681	0.000111
0.110000	16.092000	0.046582	0.000161
0.120000	16.134000	0.055164	0.000226
0.130000	16.179000	0.064412	0.000308
0.140000	16.225000	0.074312	0.000411
0.150000	16.268000	0.084848	0.000537
0.160000	16.306000	0.096005	0.000690
0.170000	16.334000	0.107766	0.000873
0.180000	16.352000	0.120108	0.001089
0.190000	16.355000	0.133010	0.001343
0.200000	16.344000	0.146448	0.001637
0.210000	16.317000	0.160396	0.001977
0.220000	16.279000	0.174830	0.002366
0.230000	16.230000	0.189723	0.002808
0.240000	16.177000	0.205048	0.003307
0.250000	16.123000	0.220775	0.003868
0.260000	16.076000	0.236876	0.004495
0.270000	16.039000	0.253318	0.005192
0.280000	16.017000	0.270072	0.005965
0.290000	16.015000	0.287107	0.006817
0.300000	16.034000	0.304403	0.007752
0.310000	16.075000	0.321940	0.008777
0.320000	16.136000	0.339696	0.009894
0.330000	16.214000	0.357654	0.011109
0.340000	16.307000	0.375794	0.012427
0.350000	16.409000	0.394098	0.013852
0.360000	16.516000	0.412549	0.015387
0.370000	16.622000	0.431129	0.017039
0.380000	16.723000	0.449821	0.018810
0.390000	16.815000	0.468609	0.020705
0.400000	16.896000	0.487478	0.022728
0.410000	16.964000	0.506412	0.024882
0.420000	17.019000	0.525397	0.027173
0.430000	17.059000	0.544418	0.029602
0.440000	17.085000	0.563462	0.032175
0.450000	17.097000	0.582517	0.034894
0.460000	17.096000	0.601565	0.037762
0.470000	17.081000	0.620574	0.040784
0.480000	17.052000	0.639514	0.043961
0.490000	17.008000	0.658354	0.047298
0.500000	16.951000	0.677065	0.050798
0.510000	16.878000	0.695620	0.054464
0.520000	16.791000	0.713991	0.058297
0.530000	16.692000	0.732153	0.062301
0.540000	16.582000	0.750081	0.066477
0.550000	16.465000	0.767750	0.070826
0.560000	16.346000	0.785138	0.075351
0.570000	16.230000	0.802222	0.080053
0.580000	16.122000	0.818982	0.084932
0.590000	16.029000	0.835396	0.089989
0.600000	15.956000	0.851447	0.095224
0.610000	15.906000	0.867115	0.100639
0.620000	15.882000	0.882383	0.106231
0.630000	15.885000	0.897235	0.112002
0.640000	15.912000	0.911656	0.117950
0.650000	15.962000	0.925631	0.124074
0.660000	16.028000	0.939165	0.130373
0.670000	16.105000	0.952276	0.136844
0.680000	16.185000	0.964966	0.143485
0.690000	16.262000	0.977233	0.150295
0.700000	16.329000	0.989079	0.157271
0.710000	16.381000	1.000503	0.164412
0.720000	16.416000	1.011507	0.171715
0.730000	16.432000	1.022092	0.179177
0.740000	16.430000	1.032259	0.186794
0.750000	16.413000	1.042011	0.194563
0.760000	16.385000	1.051349	0.202481
0.770000	16.351000	1.060277	0.210543
0.780000	16.316000	1.068798	0.218745
0.790000	16.285000	1.076915	0.227082
0.800000	16.261000	1.084631	0.235549
0.810000	16.246000	1.091952	0.244141
0.820000	16.242000	1.098881	0.252852
0.830000	16.245000	1.105423	0.261676
0.840000	16.254000	1.111584	0.270607
0.850000	16.265000	1.117369	0.279638
0.860000	16.273000	1.122783	0.288763
0.870000	16.275000	1.127834	0.297975
0.880000	16.266000	1.132528	0.307265
0.890000	16.244000	1.136872	0.316627
0.900000	16.209000	1.140873	0.326053
0.910000	16.161000	1.144539	0.335533
0.920000	16.103000	1.147875	0.345062
0.930000	16.039000	1.150888	0.354635
0.940000	15.974000	1.153586	0.364243
0.950000	15.912000	1.155979	0.373879
0.960000	15.859000	1.158077	0.383535
0.970000	15.817000	1.159892	0.393201
0.980000	15.790000	1.161434	0.402871
0.990000	15.779000	1.162715	0.412535
1.000000	15.782000	1.163750	0.422187
1.010000	15.798000	1.164550	0.431816
1.020000	15.823000	1.165131	0.441416
1.030000	15.853000	1.165506	0.450977
1.040000	15.883000	1.165693	0.460491
1.050000	15.910000	1.165705	0.469949
1.060000	15.931000	1.165561	0.479344
1.070000	15.945000	1.165278	0.488666
1.080000	15.951000	1.164874	0.497906
1.090000	15.953000	1.164367	0.507057
1.100000	15.952000	1.163777	0.516109
1.110000	15.952000	1.163123	0.525053
1.120000	15.959000	1.162408	0.533882
1.130000	15.975000	1.161642	0.542588
1.140000	16.005000	1.160846	0.551163
1.150000	16.048000	1.160039	0.559598
1.160000	16.105000	1.159240	0.567886
1.170000	16.175000	1.158469	0.576019
1.180000	16.252000	1.157743	0.583989
1.190000	16.332000	1.157079	0.591790
1.200000	16.409000	1.156494	0.599413
1.210000	16.476000	1.156003	0.606851
1.220000	16.527000	1.155621	0.614099
1.230000	16.557000	1.155364	0.621149
1.240000	16.563000	1.155243	0.627996
1.250000	16.544000	1.155274	0.634631
1.260000	16.501000	1.155466	0.641051
1.270000	16.437000	1.155816	0.647249
1.280000	16.356000	1.156320	0.653220
1.290000	16.265000	1.156976	0.658959
1.300000	16.170000	1.157779	0.664459
1.310000	16.078000	1.158728	0.669718
1.320000	15.993000	1.159819	0.674729
1.330000	15.920000	1.161050	0.679489
1.340000	15.862000	1.162419	0.683994
1.350000	15.819000	1.163921	0.688241
1.360000	15.790000	1.165555	0.692225
1.370000	15.771000	1.167318	0.695945
1.380000	15.759000	1.169206	0.699397
1.390000	15.749000	1.171217	0.702579
1.400000	15.736000	1.173349	0.705490
1.410000	15.717000	1.175599	0.708126
1.420000	15.688000	1.177970	0.710487
1.430000	15.647000	1.180456	0.712571
1.440000	15.595000	1.183049	0.714377
1.450000	15.533000	1.185742	0.715904
1.460000	15.464000	1.188526	0.717151
1.470000	15.391000	1.191392	0.718118
1.480000	15.318000	1.194333	0.718805
1.490000	15.250000	1.197337	0.719212
1.500000	15.189000	1.200397	0.719340
1.510000	15.138000	1.203503	0.719190
1.520000	15.097000	1.206643	0.718763
1.530000	15.067000	1.209809	0.718060
1.540000	15.047000	1.212989	0.717084
1.550000	15.034000	1.216172	0.715836
1.560000	15.026000	1.219347	0.714318
1.570000	15.020000	1.222510	0.712533
1.580000	15.012000	1.225658	0.710484
1.590000	15.001000	1.228781	0.708173
1.600000	14.985000	1.231870	0.705603
1.610000	14.965000	1.234915	0.702778
1.620000	14.941000	1.237905	0.699700
1.630000	14.913000	1.240832	0.696374
1.640000	14.886000	1.243685	0.692804
1.650000	14.860000	1.246455	0.688994
1.660000	14.839000	1.249133	0.684947
1.670000	14.824000	1.251710	0.680668
1.680000	14.818000	1.254175	0.676163
1.690000	14.820000	1.256519	0.671436
1.700000	14.831000	1.258735	0.666491
1.710000	14.850000	1.260811	0.661335
1.720000	14.874000	1.262740	0.655972
1.730000	14.903000	1.264512	0.650409
1.740000	14.933000	1.266119	0.644651
1.750000	14.964000	1.267557	0.638704
1.760000	14.992000	1.268824	0.632572
1.770000	15.018000	1.269914	0.626262
1.780000	15.039000	1.270819	0.619781
1.790000	15.057000	1.271534	0.613134
1.800000	15.072000	1.272052	0.606328
1.810000	15.084000	1.272368	0.599370
1.820000	15.095000	1.272474	0.592264
1.830000	15.105000	1.272364	0.585019
1.840000	15.115000	1.272033	0.577639
1.850000	15.125000	1.271472	0.570133
1.860000	15.134000	1.270676	0.562506
1.870000	15.142000	1.269639	0.554765
1.880000	15.148000	1.268353	0.546916
1.890000	15.150000	1.266812	0.538967
1.900000	15.147000	1.265009	0.530923
1.910000	15.138000	1.262939	0.522793
1.920000	15.122000	1.260593	0.514582
1.930000	15.099000	1.257965	0.506297
1.940000	15.071000	1.255049	0.497946
1.950000	15.037000	1.251838	0.489533
1.960000	15.000000	1.248325	0.481064
1.970000	14.962000	1.244502	0.472547
1.980000	14.925000	1.240362	0.463989
1.990000	14.891000	1.235899	0.455397
2.000000	14.861000	1.231107	0.446776
2.010000	14.837000	1.225981	0.438134
2.020000	14.818000	1.220516	0.429478
2.030000	14.804000	1.214709	0.420812
2.040000	14.794000	1.208557	0.412144
2.050000	14.786000	1.202056	0.403480
2.060000	14.778000	1.195206	0.394824
2.070000	14.767000	1.188005	0.386183
2.080000	14.753000	1.180452	0.377563
2.090000	14.733000	1.172547	0.368968
2.100000	14.706000	1.164292	0.360403
2.110000	14.674000	1.155687	0.351874
2.120000	14.636000	1.146734	0.343386
2.130000	14.594000	1.137437	0.334943
2.140000	14.550000	1.127799	0.326550
2.150000	14.505000	1.117823	0.318212
2.160000	14.463000	1.107514	0.309932
2.170000	14.425000	1.096877	0.301714
2.180000	14.392000	1.085919	0.293563
2.190000	14.366000	1.074643	0.285482
2.200000	14.346000	1.063048	0.277473
2.210000	14.334000	1.051143	0.269541
2.220000	14.327000	1.038933	0.261689
2.230000	14.326000	1.026428	0.253922
2.240000	14.327000	1.013635	0.246243
2.250000	14.331000	1.000563	0.238655
2.260000	14.336000	0.987222	0.231162
2.270000	14.340000	0.973620	0.223767
2.280000	14.343000	0.959769	0.216471
2.290000	14.345000	0.945677	0.209279
2.300000	14.345000	0.931357	0.202192
2.310000	14.343000	0.916819	0.195212
2.320000	14.340000	0.902074	0.188342
2.330000	14.335000	0.887136	0.181582
2.340000	14.329000	0.872015	0.174935
2.350000	14.322000	0.856726	0.168401
2.360000	14.312000	0.841282	0.161982
2.370000	14.299000	0.825695	0.155679
2.380000	14.284000	0.809981	0.149491
2.390000	14.266000	0.794154	0.143420
2.400000	14.245000	0.778228	0.137466
2.410000	14.222000	0.762219	0.131629
2.420000	14.198000	0.746144	0.125907
2.430000	14.175000	0.730017	0.120302
2.440000	14.157000	0.713856	0.114812
2.450000	14.145000	0.697678	0.109436
2.460000	14.142000	0.681499	0.104173
2.470000	14.153000	0.665334	0.099024
2.480000	14.177000	0.649194	0.093990
2.490000	14.218000	0.633101	0.089070
2.500000	14.275000	0.617075	0.084266
2.510000	14.348000	0.601137	0.079575
2.520000	14.433000	0.585307	0.074997
2.530000	14.527000	0.569603	0.070533
2.540000	14.626000	0.554044	0.066181
2.550000	14.725000	0.538648	0.061941
2.560000	14.817000	0.523432	0.057812
2.570000	14.898000	0.508412	0.053793
2.580000	14.962000	0.493604	0.049883
2.590000	15.008000	0.479024	0.046082
2.600000	15.033000	0.464687	0.042388
2.610000	15.036000	0.450606	0.038800
2.620000	15.020000	0.436794	0.035318
2.630000	14.987000	0.423265	0.031939
2.640000	14.941000	0.410030	0.028664
2.650000	14.889000	0.397101	0.025490
2.660000	14.834000	0.384489	0.022416
2.670000	14.783000	0.372204	0.019442
2.680000	14.739000	0.360256	0.016564
2.690000	14.706000	0.348654	0.013782
2.700000	14.686000	0.337405	0.011095
2.710000	14.679000	0.326518	0.008500
2.720000	14.684000	0.316000	0.005996
2.730000	14.699000	0.305857	0.003581
2.740000	14.720000	0.296092	0.001255
2.750000	14.745000	0.286710	-0.000979
2.760000	14.770000	0.277717	-0.003123
2.770000	14.790000	0.269118	-0.005177
2.780000	14.804000	0.260922	-0.007144
2.790000	14.811000	0.253132	-0.009024
2.800000	14.809000	0.245754	-0.010817
2.810000	14.799000	0.238792	-0.012525
2.820000	14.783000	0.232250	-0.014149
2.830000	14.763000	0.226132	-0.015689
2.840000	14.742000	0.220440	-0.017146
2.850000	14.724000	0.215177	-0.018519
2.860000	14.710000	0.210344	-0.019811
2.870000	14.703000	0.205941	-0.021021
2.880000	14.704000	0.201971	-0.022148
2.890000	14.714000	0.198433	-0.023194
2.900000	14.732000	0.195326	-0.024158
2.910000	14.759000	0.192650	-0.025041
2.920000	14.793000	0.190402	-0.025841
2.930000	14.832000	0.188581	-0.026559
2.940000	14.874000	0.187183	-0.027195
2.950000	14.918000	0.186207	-0.027748
2.960000	14.963000	0.185647	-0.028217
2.970000	15.007000	0.185500	-0.028602
2.980000	15.050000	0.185761	-0.028903
2.990000	15.091000	0.186438	-0.029118
3.000000	15.130000	0.187543	-0.029249
3.010000	15.168000	0.189073	-0.029295
3.020000	15.202000	0.191022	-0.029255
3.030000	15.234000	0.193386	-0.029130
3.040000	15.261000	0.196158	-0.028918
3.050000	15.284000	0.199332	-0.028618
3.060000	15.300000	0.202901	-0.028231
3.070000	15.309000	0.206858	-0.027755
3.080000	15.309000	0.211194	-0.027190
3.090000	15.300000	0.215899	-0.026535
3.100000	15.281000	0.220966	-0.025789
3.110000	15.253000	0.226382	-0.024952
3.120000	15.219000	0.232139	-0.024021
3.130000	15.178000	0.238224	-0.022997
3.140000	15.136000	0.244625	-0.021879
3.150000	15.094000	0.251330	-0.020664
3.160000	15.056000	0.258326	-0.019353
3.170000	15.025000	0.265599	-0.017944
3.180000	15.004000	0.273134	-0.016435
3.190000	14.994000	0.280917	-0.014827
3.200000	14.997000	0.288931	-0.013116
3.210000	15.012000	0.297163	-0.011303
3.220000	15.037000	0.305623	-0.009387
3.230000	15.070000	0.314303	-0.007368
3.240000	15.107000	0.323190	-0.005244
3.250000	15.145000	0.332274	-0.003015
3.260000	15.179000	0.341540	-0.000680
3.270000	15.205000	0.350978	0.001762
3.280000	15.221000	0.360574	0.004313
3.290000	15.225000	0.370317	0.006972
3.300000	15.214000	0.380195	0.009740
3.310000	15.191000	0.390195	0.012617
3.320000	15.156000	0.400306	0.015605
3.330000	15.112000	0.410517	0.018704
3.340000	15.063000	0.420814	0.021913
3.350000	15.013000	0.431187	0.025234
3.360000	14.966000	0.441623	0.028665
3.370000	14.926000	0.452112	0.032209
3.380000	14.896000	0.462642	0.035863
3.390000	14.879000	0.473201	0.039629
3.400000	14.874000	0.483778	0.043506
3.410000	14.883000	0.494362	0.047494
3.420000	14.904000	0.504941	0.051593
3.430000	14.935000	0.515505	0.055803
3.440000	14.973000	0.526042	0.060122
3.450000	15.015000	0.536540	0.064550
3.460000	15.056000	0.546990	0.069088
3.470000	15.093000	0.557387	0.073734
3.480000	15.124000	0.567749	0.078485
3.490000	15.145000	0.578072	0.083342
3.500000	15.156000	0.588345	0.088303
3.510000	15.154000	0.598557	0.093367
3.520000	15.141000	0.608700	0.098531
3.530000	15.116000	0.618765	0.103796
3.540000	15.082000	0.628743	0.109159
3.550000	15.040000	0.638626	0.114618
3.560000	14.993000	0.648409	0.120171
3.570000	14.943000	0.658083	0.125818
3.580000	14.892000	0.667644	0.131554
3.590000	14.845000	0.677085	0.137379
3.600000	14.803000	0.686401	0.143290
3.610000	14.770000	0.695589	0.149285
3.620000	14.746000	0.704645	0.155360
3.630000	14.735000	0.713565	0.161514
3.640000	14.736000	0.722347	0.167744
3.650000	14.751000	0.730989	0.174046
3.660000	14.781000	0.739489	0.180417
3.670000	14.823000	0.747845	0.186855
3.680000	14.878000	0.756059	0.193357
3.690000	14.943000	0.764129	0.199918
3.700000	15.015000	0.772057	0.206536
3.710000	15.092000	0.779844	0.213207
3.720000	15.169000	0.787491	0.219926
3.730000	15.245000	0.795002	0.226691
3.740000	15.314000	0.802378	0.233497
3.750000	15.375000	0.809625	0.240341
3.760000	15.424000	0.816769	0.247219
3.770000	15.459000	0.823817	0.254128
3.780000	15.480000	0.830768	0.261063
3.790000	15.486000	0.837623	0.268020
3.800000	15.478000	0.844380	0.274994
3.810000	15.458000	0.851040	0.281981
3.820000	15.426000	0.857602	0.288977
3.830000	15.387000	0.864067	0.295977
3.840000	15.341000	0.870432	0.302976
3.850000	15.292000	0.876700	0.309971
3.860000	15.242000	0.882868	0.316956
3.870000	15.193000	0.888938	0.323928
3.880000	15.145000	0.894909	0.330882
3.890000	15.101000	0.900781	0.337814
3.900000	15.060000	0.906553	0.344719
3.910000	15.022000	0.912226	0.351593
3.920000	14.987000	0.917800	0.358432
3.930000	14.955000	0.923274	0.365231
3.940000	14.925000	0.928649	0.371985
3.950000	14.898000	0.933925	0.378691
3.960000	14.874000	0.939101	0.385344
3.970000	14.853000	0.944178	0.391940
3.980000	14.837000	0.949155	0.398474
3.990000	14.826000	0.954033	0.404942
4.000000	14.822000	0.958813	0.411339
4.010000	14.824000	0.963493	0.417662
4.020000	14.834000	0.968074	0.423906
4.030000	14.851000	0.972558	0.430066
4.040000	14.873000	0.976942	0.436139
4.050000	14.901000	0.981230	0.442120
4.060000	14.930000	0.985442	0.448005
4.070000	14.960000	0.989590	0.453792
4.080000	14.985000	0.993678	0.459476
4.090000	15.005000	0.997706	0.465052
4.100000	15.016000	1.001678	0.470518
4.110000	15.016000	1.005593	0.475868
4.120000	15.003000	1.009455	0.481099
4.130000	14.979000	1.013262	0.486207
4.140000	14.942000	1.017016	0.491190
4.150000	14.895000	1.020716	0.496042
4.160000	14.840000	1.024363	0.500762
4.170000	14.779000	1.027955	0.505346
4.180000	14.716000	1.031491	0.509792
4.190000	14.655000	1.034970	0.514095
4.200000	14.597000	1.038390	0.518254
4.210000	14.546000	1.041749	0.522265
4.220000	14.502000	1.045045	0.526127
4.230000	14.468000	1.048273	0.529837
4.240000	14.444000	1.051432	0.533393
4.250000	14.428000	1.054517	0.536792
4.260000	14.421000	1.057524	0.540033
4.270000	14.420000	1.060449	0.543114
4.280000	14.424000	1.063288	0.546033
4.290000	14.433000	1.066034	0.548789
4.300000	14.443000	1.068690	0.551380
4.310000	14.455000	1.071276	0.553804
4.320000	14.468000	1.073794	0.556060
4.330000	14.481000	1.076245	0.558146
4.340000	14.493000	1.078629	0.560062
4.350000	14.503000	1.080945	0.561806
4.360000	14.512000	1.083192	0.563377
4.370000	14.518000	1.085370	0.564774
4.380000	14.520000	1.087477	0.565997
4.390000	14.516000	1.089511	0.567046
4.400000	14.504000	1.091468	0.567919
4.410000	14.484000	1.093346	0.568616
4.420000	14.453000	1.095142	0.569139
4.430000	14.410000	1.096851	0.569486
4.440000	14.355000	1.098470	0.569657
4.450000	14.288000	1.099993	0.569654
4.460000	14.211000	1.101415	0.569477
4.470000	14.126000	1.102730	0.569126
4.480000	14.036000	1.103932	0.568602
4.490000	13.947000	1.105015	0.567906
4.500000	13.862000	1.105971	0.567040
4.510000	13.788000	1.106793	0.566004
4.520000	13.728000	1.107473	0.564800
4.530000	13.687000	1.108003	0.563429
4.540000	13.668000	1.108373	0.561894
4.550000	13.672000	1.108575	0.560194
4.560000	13.701000	1.108612	0.558332
4.570000	13.751000	1.108490	0.556309
4.580000	13.821000	1.108214	0.554126
4.590000	13.906000	1.107791	0.551787
4.600000	13.999000	1.107224	0.549292
4.610000	14.096000	1.106519	0.546644
4.620000	14.189000	1.105679	0.543846
4.630000	14.273000	1.104707	0.540899
4.640000	14.343000	1.103606	0.537806
4.650000	14.395000	1.102379	0.534569
4.660000	14.426000	1.101027	0.531191
4.670000	14.436000	1.099552	0.527675
4.680000	14.425000	1.097954	0.524022
4.690000	14.396000	1.096233	0.520237
4.700000	14.351000	1.094391	0.516321
4.710000	14.296000	1.092425	0.512278
4.720000	14.234000	1.090336	0.508110
4.730000	14.171000	1.088120	0.503821
4.740000	14.111000	1.085761	0.499414
4.750000	14.059000	1.083243	0.494891
4.760000	14.018000	1.080562	0.490258
4.770000	13.991000	1.077717	0.485516
4.780000	13.978000	1.074706	0.480670
4.790000	13.981000	1.071526	0.475723
4.800000	13.997000	1.068179	0.470679
4.810000	14.027000	1.064663	0.465540
4.820000	14.067000	1.060980	0.460311
4.830000	14.114000	1.057132	0.454995
4.840000	14.165000	1.053120	0.449596
4.850000	14.216000	1.048946	0.444117
4.860000	14.265000	1.044616	0.438562
4.870000	14.307000	1.040132	0.432935
4.880000	14.340000	1.035499	0.427239
4.890000	14.362000	1.030724	0.421477
4.900000	14.371000	1.025811	0.415655
4.910000	14.367000	1.020764	0.409774
4.920000	14.350000	1.015572	0.403837
4.930000	14.322000	1.010232	0.397847
4.940000	14.284000	1.004742	0.391810
4.950000	14.240000	0.999100	0.385728
4.960000	14.193000	0.993306	0.379606
4.970000	14.147000	0.987359	0.373449
4.980000	14.106000	0.981258	0.367260
4.990000	14.074000	0.975003	0.361043
5.000000	14.055000	0.968595	0.354802
5.010000	14.050000	0.962034	0.348541
5.020000	14.060000	0.955322	0.342264
5.030000	14.087000	0.948461	0.335974
5.040000	14.128000	0.941452	0.329674
5.050000	14.182000	0.934297	0.323370
5.060000	14.245000	0.926999	0.317063
5.070000	14.312000	0.919561	0.310758
5.080000	14.380000	0.911986	0.304458
5.090000	14.445000	0.904279	0.298166
5.100000	14.501000	0.896443	0.291885
5.110000	14.547000	0.888483	0.285620
5.120000	14.579000	0.880404	0.279372
5.130000	14.598000	0.872211	0.273145
5.140000	14.604000	0.863909	0.266943
5.150000	14.598000	0.855505	0.260767
5.160000	14.583000	0.847005	0.254622
5.170000	14.562000	0.838416	0.248510
5.180000	14.540000	0.829745	0.242433
5.190000	14.518000	0.820999	0.236395
5.200000	14.501000	0.812187	0.230398
5.210000	14.489000	0.803316	0.224446
5.220000	14.484000	0.794395	0.218539
5.230000	14.485000	0.785434	0.212682
5.240000	14.491000	0.776441	0.206876
5.250000	14.499000	0.767426	0.201124
5.260000	14.506000	0.758400	0.195428
5.270000	14.510000	0.749372	0.189791
5.280000	14.508000	0.740355	0.184214
5.290000	14.498000	0.731353	0.178701
5.300000	14.478000	0.722341	0.173251
5.310000	14.449000	0.713316	0.167868
5.320000	14.413000	0.704282	0.162554
5.330000	14.371000	0.695241	0.157310
5.340000	14.328000	0.686196	0.152139
5.350000	14.287000	0.677153	0.147043
5.360000	14.252000	0.668115	0.142024
