# Time (s), Wind Speed (m/s), Blade Displacement (m), Tower Displacement (m)
0.000000	12.289000	0.000000	0.000000
0.010000	12.297000	0.000537	0.000000
0.020000	12.305000	0.002136	0.000000
0.030000	12.313000	0.004777	0.000001
0.040000	12.321000	0.008440	0.000004
0.050000	12.330000	0.013103	0.000010
0.060000	12.338000	0.018745	0.000021
0.070000	12.347000	0.025341	0.000037
0.080000	12.356000	0.032870	0.000062
0.090000	12.367000	0.041305	0.000098
0.100000	12.380000	0.050623	0.000147
0.110000	12.394000	0.060797	0.000213
0.120000	12.410000	0.071803	0.000298
0.130000	12.426000	0.083614	0.000405
0.140000	12.443000	0.096204	0.000540
0.150000	12.459000	0.109544	0.000705
0.160000	12.473000	0.123607	0.000904
0.170000	12.484000	0.138365	0.001141
0.180000	12.490000	0.153788	0.001422
0.190000	12.492000	0.169848	0.001750
0.200000	12.487000	0.186514	0.002131
0.210000	12.478000	0.203750	0.002568
0.220000	12.463000	0.221522	0.003068
0.230000	12.445000	0.239794	0.003635
0.240000	12.425000	0.258533	0.004275
0.250000	12.406000	0.277704	0.004993
0.260000	12.388000	0.297272	0.005793
0.270000	12.374000	0.317206	0.006682
0.280000	12.366000	0.337472	0.007665
0.290000	12.365000	0.358038	0.008747
0.300000	12.372000	0.378870	0.009933
0.310000	12.387000	0.399937	0.011229
0.320000	12.410000	0.421209	0.012641
0.330000	12.439000	0.442663	0.014172
0.340000	12.474000	0.464273	0.015830
0.350000	12.512000	0.486015	0.017618
0.360000	12.551000	0.507863	0.019543
0.370000	12.591000	0.529795	0.021609
0.380000	12.628000	0.551784	0.023822
0.390000	12.662000	0.573809	0.026187
0.400000	12.693000	0.595845	0.028707
0.410000	12.718000	0.617869	0.031388
0.420000	12.738000	0.639858	0.034234
0.430000	12.753000	0.661790	0.037249
0.440000	12.763000	0.683642	0.040437
0.450000	12.767000	0.705392	0.043802
0.460000	12.767000	0.727019	0.047347
0.470000	12.761000	0.748501	0.051076
0.480000	12.750000	0.769817	0.054991
0.490000	12.734000	0.790948	0.059096
0.500000	12.713000	0.811872	0.063392
0.510000	12.686000	0.832562	0.067883
0.520000	12.653000	0.852990	0.072570
0.530000	12.616000	0.873131	0.077457
0.540000	12.576000	0.892962	0.082547
0.550000	12.532000	0.912461	0.087839
0.560000	12.488000	0.931607	0.093337
0.570000	12.445000	0.950383	0.099041
0.580000	12.405000	0.968771	0.104952
0.590000	12.370000	0.986756	0.111071
0.600000	12.343000	1.004326	0.117396
0.610000	12.324000	1.021469	0.123929
0.620000	12.315000	1.038174	0.130668
0.630000	12.316000	1.054434	0.137612
0.640000	12.326000	1.070242	0.144760
0.650000	12.345000	1.085594	0.152110
0.660000	12.369000	1.100486	0.159660
0.670000	12.398000	1.114916	0.167407
0.680000	12.428000	1.128887	0.175349
0.690000	12.456000	1.142398	0.183482
0.700000	12.481000	1.155455	0.191802
0.710000	12.500000	1.168063	0.200306
0.720000	12.513000	1.180226	0.208990
0.730000	12.519000	1.191948	0.217850
0.740000	12.518000	1.203232	0.226882
0.750000	12.512000	1.214085	0.236081
0.760000	12.502000	1.224511	0.245442
0.770000	12.489000	1.234515	0.254961
0.780000	12.476000	1.244104	0.264632
0.790000	12.464000	1.253285	0.274449
0.800000	12.455000	1.262064	0.284408
0.810000	12.450000	1.270450	0.294500
0.820000	12.448000	1.278450	0.304722
0.830000	12.449000	1.286072	0.315064
0.840000	12.453000	1.293327	0.325522
0.850000	12.457000	1.300223	0.336087
0.860000	12.460000	1.306771	0.346753
0.870000	12.460000	1.312981	0.357511
0.880000	12.457000	1.318864	0.368354
0.890000	12.449000	1.324431	0.379273
0.900000	12.436000	1.329695	0.390260
0.910000	12.418000	1.334668	0.401307
0.920000	12.396000	1.339363	0.412403
0.930000	12.373000	1.343793	0.423541
0.940000	12.348000	1.347972	0.434710
0.950000	12.325000	1.351915	0.445901
0.960000	12.305000	1.355636	0.457103
0.970000	12.290000	1.359133	0.468312
0.980000	12.280000	1.362416	0.479519
0.990000	12.276000	1.365501	0.490714
1.000000	12.277000	1.368402	0.501887
1.010000	12.283000	1.371135	0.513031
1.020000	12.292000	1.373713	0.524134
1.030000	12.303000	1.376151	0.535188
1.040000	12.314000	1.378464	0.546183
1.050000	12.324000	1.380667	0.557111
1.060000	12.332000	1.382772	0.567963
1.070000	12.337000	1.384795	0.578728
1.080000	12.339000	1.386749	0.589399
1.090000	12.340000	1.388648	0.599966
1.100000	12.339000	1.390506	0.610421
1.110000	12.340000	1.392336	0.620755
1.120000	12.342000	1.394151	0.630959
1.130000	12.348000	1.395965	0.641024
1.140000	12.359000	1.397791	0.650943
1.150000	12.375000	1.399642	0.660706
1.160000	12.396000	1.401531	0.670305
1.170000	12.422000	1.403470	0.679732
1.180000	12.451000	1.405473	0.688979
1.190000	12.480000	1.407551	0.698037
1.200000	12.509000	1.409717	0.706898
1.210000	12.534000	1.411984	0.715554
1.220000	12.553000	1.414368	0.724001
1.230000	12.564000	1.416877	0.732233
1.240000	12.566000	1.419516	0.740242
1.250000	12.559000	1.422287	0.748022
1.260000	12.543000	1.425195	0.755565
1.270000	12.519000	1.428242	0.762867
1.280000	12.489000	1.431427	0.769920
1.290000	12.455000	1.434753	0.776719
1.300000	12.420000	1.438217	0.783260
1.310000	12.385000	1.441819	0.789537
1.320000	12.354000	1.445557	0.795546
1.330000	12.327000	1.449428	0.801283
1.340000	12.305000	1.453426	0.806744
1.350000	12.289000	1.457549	0.811925
1.360000	12.278000	1.461789	0.816824
1.370000	12.271000	1.466141	0.821437
1.380000	12.267000	1.470597	0.825762
1.390000	12.263000	1.475148	0.829797
1.400000	12.258000	1.479787	0.833541
1.410000	12.251000	1.484504	0.836991
1.420000	12.240000	1.489309	0.840145
1.430000	12.225000	1.494196	0.843002
1.440000	12.205000	1.499159	0.845560
1.450000	12.182000	1.504189	0.847819
1.460000	12.156000	1.509278	0.849778
1.470000	12.129000	1.514416	0.851437
1.480000	12.102000	1.519597	0.852795
1.490000	12.077000	1.524810	0.853853
1.500000	12.054000	1.530046	0.854612
1.510000	12.035000	1.535297	0.855072
1.520000	12.020000	1.540552	0.855235
1.530000	12.009000	1.545803	0.855102
1.540000	12.001000	1.551039	0.854675
1.550000	11.996000	1.556250	0.853956
1.560000	11.993000	1.561426	0.852948
1.570000	11.991000	1.566556	0.851654
1.580000	11.988000	1.571630	0.850076
1.590000	11.984000	1.576637	0.848218
1.600000	11.978000	1.581566	0.846083
1.610000	11.970000	1.586411	0.843675
1.620000	11.961000	1.591163	0.840997
1.630000	11.951000	1.595811	0.838052
1.640000	11.941000	1.600345	0.834845
1.650000	11.931000	1.604756	0.831380
1.660000	11.923000	1.609034	0.827662
1.670000	11.918000	1.613169	0.823695
1.680000	11.915000	1.617153	0.819484
1.690000	11.916000	1.620976	0.815034
1.700000	11.920000	1.624630	0.810351
1.710000	11.927000	1.628107	0.805439
1.720000	11.936000	1.631399	0.800304
1.730000	11.947000	1.634498	0.794952
1.740000	11.958000	1.637397	0.789388
1.750000	11.969000	1.640089	0.783619
1.760000	11.980000	1.642566	0.777650
1.770000	11.989000	1.644823	0.771488
1.780000	11.997000	1.646853	0.765139
1.790000	12.004000	1.648650	0.758611
1.800000	12.009000	1.650209	0.751909
1.810000	12.014000	1.651526	0.745040
1.820000	12.017000	1.652598	0.738009
1.830000	12.021000	1.653419	0.730822
1.840000	12.025000	1.653981	0.723489
1.850000	12.028000	1.654275	0.716014
1.860000	12.032000	1.654294	0.708406
1.870000	12.035000	1.654033	0.700671
1.880000	12.037000	1.653483	0.692817
1.890000	12.038000	1.652640	0.684850
1.900000	12.037000	1.651497	0.676778
1.910000	12.033000	1.650049	0.668607
1.920000	12.027000	1.648291	0.660345
1.930000	12.019000	1.646219	0.651997
1.940000	12.008000	1.643829	0.643572
1.950000	11.995000	1.641116	0.635075
1.960000	11.982000	1.638078	0.626513
1.970000	11.967000	1.634711	0.617894
1.980000	11.954000	1.631012	0.609223
1.990000	11.941000	1.626981	0.600508
2.000000	11.930000	1.622613	0.591754
2.010000	11.921000	1.617910	0.582969
2.020000	11.914000	1.612868	0.574159
2.030000	11.909000	1.607487	0.565330
2.040000	11.905000	1.601768	0.556489
2.050000	11.902000	1.595710	0.547642
2.060000	11.898000	1.589314	0.538795
2.070000	11.894000	1.582586	0.529952
2.080000	11.889000	1.575527	0.521118
2.090000	11.882000	1.568139	0.512299
2.100000	11.872000	1.560422	0.503503
2.110000	11.860000	1.552379	0.494735
2.120000	11.846000	1.544013	0.486001
2.130000	11.830000	1.535326	0.477307
2.140000	11.813000	1.526323	0.468657
2.150000	11.797000	1.517007	0.460059
2.160000	11.781000	1.507382	0.451515
2.170000	11.767000	1.497455	0.443032
2.180000	11.755000	1.487231	0.434615
2.190000	11.745000	1.476715	0.426267
2.200000	11.738000	1.465916	0.417993
2.210000	11.733000	1.454839	0.409797
2.220000	11.730000	1.443493	0.401683
2.230000	11.730000	1.431885	0.393655
2.240000	11.730000	1.420025	0.385717
2.250000	11.732000	1.407923	0.377871
2.260000	11.733000	1.395587	0.370122
2.270000	11.735000	1.383028	0.362471
2.280000	11.736000	1.370257	0.354922
2.290000	11.737000	1.357285	0.347477
2.300000	11.736000	1.344125	0.340139
2.310000	11.736000	1.330788	0.332910
2.320000	11.735000	1.317287	0.325791
2.330000	11.733000	1.303637	0.318786
2.340000	11.731000	1.289850	0.311895
2.350000	11.728000	1.275941	0.305120
2.360000	11.724000	1.261926	0.298462
2.370000	11.719000	1.247796	0.291923
2.380000	11.714000	1.233548	0.285505
2.390000	11.707000	1.219199	0.279210
2.400000	11.699000	1.204764	0.273039
2.410000	11.690000	1.190261	0.266994
2.420000	11.682000	1.175705	0.261075
2.430000	11.673000	1.161112	0.255284
2.440000	11.666000	1.146498	0.249622
2.450000	11.662000	1.131879	0.244090
2.460000	11.661000	1.117269	0.238687
2.470000	11.665000	1.102684	0.233415
2.480000	11.674000	1.088139	0.228275
2.490000	11.689000	1.073648	0.223266
2.500000	11.710000	1.059226	0.218388
2.510000	11.737000	1.044887	0.213643
2.520000	11.769000	1.030645	0.209029
2.530000	11.804000	1.016515	0.204547
2.540000	11.840000	1.002509	0.200196
2.550000	11.877000	0.988642	0.195977
2.560000	11.911000	0.974927	0.191888
2.570000	11.941000	0.961376	0.187928
2.580000	11.965000	0.948004	0.184098
2.590000	11.982000	0.934821	0.180396
2.600000	11.991000	0.921842	0.176821
2.610000	11.992000	0.909077	0.173372
2.620000	11.986000	0.896540	0.170048
2.630000	11.974000	0.884243	0.166848
2.640000	11.957000	0.872196	0.163770
2.650000	11.938000	0.860412	0.160812
2.660000	11.917000	0.848901	0.157973
2.670000	11.898000	0.837676	0.155251
2.680000	11.882000	0.826746	0.152643
2.690000	11.870000	0.816119	0.150150
2.700000	11.862000	0.805769	0.147773
2.710000	11.859000	0.795696	0.145513
2.720000	11.861000	0.785907	0.143368
2.730000	11.867000	0.776406	0.141338
2.740000	11.875000	0.767201	0.139420
2.750000	11.884000	0.758295	0.137613
2.760000	11.893000	0.749694	0.135917
2.770000	11.901000	0.741403	0.134330
2.780000	11.906000	0.733425	0.132851
2.790000	11.908000	0.725763	0.131478
2.800000	11.907000	0.718423	0.130211
2.810000	11.904000	0.711406	0.129048
2.820000	11.898000	0.704715	0.127988
2.830000	11.890000	0.698353	0.127030
2.840000	11.883000	0.692321	0.126173
2.850000	11.876000	0.686622	0.125416
2.860000	11.871000	0.681256	0.124758
2.870000	11.868000	0.676224	0.124198
2.880000	11.868000	0.671528	0.123734
2.890000	11.872000	0.667166	0.123366
2.900000	11.879000	0.663140	0.123093
2.910000	11.889000	0.659448	0.122914
2.920000	11.901000	0.656090	0.122828
2.930000	11.916000	0.653064	0.122834
2.940000	11.931000	0.650369	0.122931
2.950000	11.948000	0.648003	0.123119
2.960000	11.964000	0.645964	0.123396
2.970000	11.981000	0.644248	0.123761
2.980000	11.996000	0.642854	0.124215
2.990000	12.012000	0.641777	0.124755
3.000000	12.026000	0.641015	0.125382
3.010000	12.040000	0.640581	0.126095
3.020000	12.053000	0.640479	0.126892
3.030000	12.065000	0.640704	0.127774
3.040000	12.075000	0.641253	0.128739
3.050000	12.083000	0.642118	0.129787
3.060000	12.089000	0.643296	0.130917
3.070000	12.092000	0.644781	0.132127
3.080000	12.092000	0.646565	0.133418
3.090000	12.089000	0.648644	0.134789
3.100000	12.082000	0.651010	0.136238
3.110000	12.072000	0.653658	0.137766
3.120000	12.059000	0.656580	0.139371
3.130000	12.044000	0.659768	0.141054
3.140000	12.028000	0.663217	0.142813
3.150000	12.012000	0.666918	0.144649
3.160000	11.998000	0.670863	0.146560
3.170000	11.987000	0.675044	0.148547
3.180000	11.979000	0.679453	0.150608
3.190000	11.975000	0.684082	0.152744
3.200000	11.976000	0.688922	0.154954
3.210000	11.982000	0.693963	0.157237
3.220000	11.991000	0.699196	0.159594
3.230000	12.003000	0.704612	0.162025
3.240000	12.017000	0.710202	0.164528
3.250000	12.031000	0.715957	0.167104
3.260000	12.044000	0.721885	0.169752
3.270000	12.053000	0.727982	0.172471
3.280000	12.059000	0.734240	0.175259
3.290000	12.061000	0.740650	0.178118
3.300000	12.057000	0.747203	0.181045
3.310000	12.048000	0.753892	0.184040
3.320000	12.035000	0.760709	0.187103
3.330000	12.019000	0.767645	0.190233
3.340000	12.000000	0.774693	0.193429
3.350000	11.982000	0.781844	0.196690
3.360000	11.964000	0.789091	0.200015
3.370000	11.949000	0.796426	0.203405
3.380000	11.938000	0.803843	0.206857
3.390000	11.932000	0.811333	0.210372
3.400000	11.930000	0.818889	0.213947
3.410000	11.933000	0.826505	0.217584
3.420000	11.941000	0.834173	0.221280
3.430000	11.953000	0.841887	0.225034
3.440000	11.967000	0.849639	0.228846
3.450000	11.982000	0.857423	0.232715
3.460000	11.997000	0.865233	0.236640
3.470000	12.011000	0.873062	0.240620
3.480000	12.022000	0.880903	0.244653
3.490000	12.030000	0.888751	0.248739
3.500000	12.034000	0.896603	0.252877
3.510000	12.034000	0.904462	0.257065
3.520000	12.029000	0.912324	0.261301
3.530000	12.019000	0.920179	0.265583
3.540000	12.007000	0.928022	0.269911
3.550000	11.991000	0.935844	0.274283
3.560000	11.973000	0.943640	0.278697
3.570000	11.955000	0.951403	0.283151
3.580000	11.936000	0.959128	0.287645
3.590000	11.918000	0.966811	0.292176
3.600000	11.903000	0.974446	0.296743
3.610000	11.890000	0.982029	0.301344
3.620000	11.882000	0.989557	0.305976
3.630000	11.877000	0.997026	0.310639
3.640000	11.878000	1.004434	0.315331
3.650000	11.883000	1.011777	0.320049
3.660000	11.894000	1.019055	0.324791
3.670000	11.910000	1.026265	0.329556
3.680000	11.930000	1.033407	0.334341
3.690000	11.954000	1.040480	0.339145
3.700000	11.981000	1.047484	0.343964
3.710000	12.010000	1.054419	0.348798
3.720000	12.038000	1.061285	0.353644
3.730000	12.066000	1.068084	0.358499
3.740000	12.092000	1.074818	0.363361
3.750000	12.115000	1.081488	0.368229
3.760000	12.133000	1.088097	0.373098
3.770000	12.146000	1.094653	0.377969
3.780000	12.154000	1.101157	0.382838
3.790000	12.156000	1.107608	0.387702
3.800000	12.153000	1.114001	0.392560
3.810000	12.145000	1.120333	0.397409
3.820000	12.134000	1.126602	0.402246
3.830000	12.119000	1.132805	0.407068
3.840000	12.102000	1.138939	0.411874
3.850000	12.083000	1.145002	0.416659
3.860000	12.065000	1.150991	0.421423
3.870000	12.046000	1.156903	0.426162
3.880000	12.029000	1.162738	0.430874
3.890000	12.012000	1.168492	0.435557
3.900000	11.997000	1.174164	0.440208
3.910000	11.983000	1.179752	0.444824
3.920000	11.970000	1.185255	0.449403
3.930000	11.958000	1.190671	0.453944
3.940000	11.947000	1.195998	0.458443
3.950000	11.937000	1.201237	0.462897
3.960000	11.928000	1.206384	0.467306
3.970000	11.920000	1.211441	0.471666
3.980000	11.914000	1.216405	0.475975
3.990000	11.910000	1.221276	0.480231
4.000000	11.908000	1.226054	0.484431
4.010000	11.909000	1.230738	0.488574
4.020000	11.912000	1.235328	0.492656
4.030000	11.919000	1.239823	0.496677
4.040000	11.927000	1.244225	0.500633
4.050000	11.937000	1.248533	0.504522
4.060000	11.948000	1.252747	0.508343
4.070000	11.959000	1.256867	0.512092
4.080000	11.969000	1.260899	0.515769
4.090000	11.976000	1.264853	0.519371
4.100000	11.980000	1.268730	0.522896
4.110000	11.980000	1.272530	0.526343
4.120000	11.975000	1.276252	0.529708
4.130000	11.966000	1.279895	0.532990
4.140000	11.952000	1.283458	0.536186
4.150000	11.935000	1.286941	0.539296
4.160000	11.914000	1.290342	0.542316
4.170000	11.891000	1.293660	0.545246
4.180000	11.868000	1.296895	0.548084
4.190000	11.845000	1.300045	0.550827
4.200000	11.824000	1.303110	0.553475
4.210000	11.805000	1.306088	0.556027
4.220000	11.788000	1.308979	0.558480
4.230000	11.776000	1.311780	0.560833
4.240000	11.767000	1.314491	0.563086
4.250000	11.761000	1.317110	0.565237
4.260000	11.758000	1.319636	0.567285
4.270000	11.757000	1.322068	0.569229
4.280000	11.759000	1.324405	0.571068
4.290000	11.762000	1.326644	0.572802
4.300000	11.766000	1.328785	0.574430
4.310000	11.771000	1.330825	0.575950
4.320000	11.775000	1.332764	0.577364
4.330000	11.780000	1.334603	0.578669
4.340000	11.784000	1.336360	0.579866
4.350000	11.788000	1.338039	0.580952
4.360000	11.791000	1.339637	0.581929
4.370000	11.793000	1.341153	0.582795
4.380000	11.794000	1.342584	0.583551
4.390000	11.793000	1.343929	0.584194
4.400000	11.788000	1.345185	0.584727
4.410000	11.781000	1.346350	0.585148
4.420000	11.769000	1.347422	0.585456
4.430000	11.753000	1.348399	0.585654
4.440000	11.733000	1.349278	0.585739
4.450000	11.708000	1.350058	0.585713
4.460000	11.679000	1.350735	0.585576
4.470000	11.647000	1.351309	0.585328
4.480000	11.614000	1.351776	0.584970
4.490000	11.581000	1.352135	0.584501
4.500000	11.549000	1.352382	0.583923
4.510000	11.521000	1.352516	0.583237
4.520000	11.499000	1.352535	0.582442
4.530000	11.484000	1.352436	0.581540
4.540000	11.477000	1.352216	0.580532
4.550000	11.478000	1.351873	0.579418
4.560000	11.489000	1.351405	0.578200
4.570000	11.508000	1.350809	0.576879
4.580000	11.534000	1.350084	0.575456
4.590000	11.565000	1.349251	0.573932
4.600000	11.600000	1.348324	0.572308
4.610000	11.635000	1.347306	0.570585
4.620000	11.670000	1.346198	0.568764
4.630000	11.701000	1.345005	0.566847
4.640000	11.727000	1.343726	0.564835
4.650000	11.746000	1.342365	0.562728
4.660000	11.758000	1.340924	0.560529
4.670000	11.762000	1.339402	0.558239
4.680000	11.758000	1.337801	0.555859
4.690000	11.747000	1.336122	0.553392
4.700000	11.730000	1.334365	0.550838
4.710000	11.709000	1.332530	0.548199
4.720000	11.686000	1.330617	0.545478
4.730000	11.663000	1.328625	0.542676
4.740000	11.641000	1.326554	0.539794
4.750000	11.621000	1.324401	0.536836
4.760000	11.606000	1.322166	0.533803
4.770000	11.596000	1.319847	0.530697
4.780000	11.591000	1.317442	0.527520
4.790000	11.592000	1.314948	0.524274
4.800000	11.598000	1.312363	0.520963
4.810000	11.609000	1.309684	0.517588
4.820000	11.624000	1.306908	0.514151
4.830000	11.641000	1.304030	0.510655
4.840000	11.660000	1.301048	0.507103
4.850000	11.679000	1.297972	0.503497
4.860000	11.697000	1.294824	0.499838
4.870000	11.713000	1.291606	0.496130
4.880000	11.725000	1.288318	0.492373
4.890000	11.733000	1.284961	0.488572
4.900000	11.737000	1.281533	0.484727
4.910000	11.735000	1.278036	0.480841
4.920000	11.729000	1.274471	0.476917
4.930000	11.718000	1.270837	0.472957
4.940000	11.704000	1.267135	0.468964
4.950000	11.688000	1.263366	0.464939
4.960000	11.670000	1.259530	0.460885
4.970000	11.653000	1.255628	0.456805
4.980000	11.638000	1.251660	0.452700
4.990000	11.626000	1.247628	0.448575
5.000000	11.619000	1.243531	0.444430
5.010000	11.617000	1.239371	0.440268
5.020000	11.621000	1.235148	0.436093
5.030000	11.631000	1.230863	0.431906
5.040000	11.646000	1.226517	0.427710
5.050000	11.666000	1.222111	0.423507
5.060000	11.689000	1.217646	0.419301
5.070000	11.714000	1.213123	0.415093
5.080000	11.740000	1.208542	0.410887
5.090000	11.763000	1.203906	0.406684
5.100000	11.784000	1.199214	0.402488
5.110000	11.801000	1.194469	0.398301
5.120000	11.813000	1.189686	0.394124
5.130000	11.820000	1.184871	0.389960
5.140000	11.822000	1.180029	0.385811
5.150000	11.820000	1.175161	0.381680
5.160000	11.815000	1.170269	0.377567
5.170000	11.807000	1.165355	0.373476
5.180000	11.799000	1.160422	0.369409
5.190000	11.791000	1.155471	0.365368
5.200000	11.784000	1.150504	0.361355
5.210000	11.780000	1.145523	0.357372
5.220000	11.778000	1.140529	0.353420
5.230000	11.778000	1.135524	0.349503
5.240000	11.780000	1.130508	0.345622
5.250000	11.783000	1.125484	0.341779
5.260000	11.786000	1.120453	0.337976
5.270000	11.787000	1.115416	0.334214
5.280000	11.786000	1.110373	0.330496
5.290000	11.783000	1.105326	0.326824
5.300000	11.775000	1.100276	0.323199
5.310000	11.764000	1.095223	0.319622
5.320000	11.751000	1.090168	0.316096
5.330000	11.736000	1.085111	0.312623
5.340000	11.719000	1.080053	0.309203
5.350000	11.704000	1.074995	0.305839
5.360000	11.691000	1.069937	0.302531
5.370000	11.681000	1.064884	0.299281
