# Time (s), Wind Speed (m/s), Blade Displacement (m), Tower Displacement (m)
0.000000	6.177000	0.000000	0.000000
0.010000	6.183000	0.000213	0.000000
0.020000	6.190000	0.000848	0.000000
0.030000	6.196000	0.001899	0.000001
0.040000	6.203000	0.003360	0.000002
0.050000	6.209000	0.005224	0.000004
0.060000	6.216000	0.007484	0.000008
0.070000	6.223000	0.010133	0.000015
0.080000	6.231000	0.013161	0.000025
0.090000	6.239000	0.016561	0.000039
0.100000	6.249000	0.020325	0.000059
0.110000	6.260000	0.024443	0.000085
0.120000	6.273000	0.028908	0.000119
0.130000	6.286000	0.033708	0.000162
0.140000	6.300000	0.038836	0.000216
0.150000	6.312000	0.044282	0.000283
0.160000	6.323000	0.050036	0.000363
0.170000	6.332000	0.056089	0.000458
0.180000	6.337000	0.062427	0.000571
0.190000	6.338000	0.069040	0.000704
0.200000	6.335000	0.075914	0.000858
0.210000	6.327000	0.083035	0.001035
0.220000	6.315000	0.090391	0.001238
0.230000	6.301000	0.097967	0.001468
0.240000	6.285000	0.105750	0.001727
0.250000	6.269000	0.113725	0.002018
0.260000	6.255000	0.121877	0.002344
0.270000	6.244000	0.130192	0.002705
0.280000	6.238000	0.138654	0.003106
0.290000	6.237000	0.147249	0.003547
0.300000	6.243000	0.155963	0.004030
0.310000	6.255000	0.164786	0.004559
0.320000	6.273000	0.173708	0.005136
0.330000	6.296000	0.182719	0.005762
0.340000	6.323000	0.191807	0.006441
0.350000	6.354000	0.200964	0.007174
0.360000	6.385000	0.210179	0.007964
0.370000	6.416000	0.219443	0.008812
0.380000	6.446000	0.228747	0.009722
0.390000	6.473000	0.238082	0.010694
0.400000	6.497000	0.247438	0.011731
0.410000	6.517000	0.256808	0.012835
0.420000	6.533000	0.266182	0.014007
0.430000	6.545000	0.275553	0.015250
0.440000	6.552000	0.284913	0.016565
0.450000	6.556000	0.294253	0.017954
0.460000	6.555000	0.303568	0.019418
0.470000	6.551000	0.312848	0.020959
0.480000	6.542000	0.322077	0.022577
0.490000	6.530000	0.331243	0.024276
0.500000	6.512000	0.340330	0.026056
0.510000	6.491000	0.349327	0.027918
0.520000	6.465000	0.358221	0.029865
0.530000	6.436000	0.367000	0.031896
0.540000	6.403000	0.375653	0.034013
0.550000	6.369000	0.384169	0.036216
0.560000	6.334000	0.392539	0.038506
0.570000	6.299000	0.400754	0.040884
0.580000	6.267000	0.408804	0.043350
0.590000	6.240000	0.416682	0.045904
0.600000	6.218000	0.424380	0.048547
0.610000	6.203000	0.431892	0.051277
0.620000	6.196000	0.439211	0.054095
0.630000	6.197000	0.446332	0.057001
0.640000	6.205000	0.453250	0.059994
0.650000	6.220000	0.459961	0.063073
0.660000	6.239000	0.466461	0.066238
0.670000	6.262000	0.472748	0.069488
0.680000	6.285000	0.478830	0.072820
0.690000	6.308000	0.484711	0.076235
0.700000	6.327000	0.490390	0.079731
0.710000	6.343000	0.495869	0.083307
0.720000	6.353000	0.501150	0.086960
0.730000	6.357000	0.506233	0.090691
0.740000	6.357000	0.511120	0.094496
0.750000	6.352000	0.515814	0.098375
0.760000	6.343000	0.520315	0.102325
0.770000	6.333000	0.524627	0.106344
0.780000	6.323000	0.528752	0.110430
0.790000	6.314000	0.532691	0.114581
0.800000	6.306000	0.536448	0.118794
0.810000	6.302000	0.540025	0.123067
0.820000	6.300000	0.543425	0.127396
0.830000	6.301000	0.546652	0.131779
0.840000	6.304000	0.549708	0.136214
0.850000	6.307000	0.552597	0.140695
0.860000	6.309000	0.555323	0.145222
0.870000	6.310000	0.557890	0.149789
0.880000	6.307000	0.560300	0.154394
0.890000	6.300000	0.562560	0.159033
0.900000	6.290000	0.564672	0.163701
0.910000	6.276000	0.566641	0.168396
0.920000	6.259000	0.568471	0.173113
0.930000	6.240000	0.570169	0.177847
0.940000	6.220000	0.571733	0.182596
0.950000	6.202000	0.573169	0.187358
0.960000	6.186000	0.574480	0.192127
0.970000	6.174000	0.575672	0.196900
0.980000	6.166000	0.576753	0.201673
0.990000	6.162000	0.577726	0.206443
1.000000	6.163000	0.578599	0.211204
1.010000	6.168000	0.579378	0.215953
1.020000	6.175000	0.580070	0.220686
1.030000	6.184000	0.580680	0.225399
1.040000	6.192000	0.581215	0.230088
1.050000	6.200000	0.581683	0.234749
1.060000	6.206000	0.582091	0.239378
1.070000	6.210000	0.582446	0.243971
1.080000	6.212000	0.582754	0.248523
1.090000	6.212000	0.583025	0.253032
1.100000	6.212000	0.583265	0.257492
1.110000	6.212000	0.583482	0.261899
1.120000	6.214000	0.583684	0.266251
1.130000	6.219000	0.583880	0.270542
1.140000	6.227000	0.584078	0.274768
1.150000	6.240000	0.584284	0.278927
1.160000	6.257000	0.584501	0.283014
1.170000	6.277000	0.584738	0.287027
1.180000	6.300000	0.585003	0.290961
1.190000	6.323000	0.585304	0.294813
1.200000	6.346000	0.585646	0.298579
1.210000	6.365000	0.586036	0.302257
1.220000	6.380000	0.586478	0.305843
1.230000	6.389000	0.586977	0.309333
1.240000	6.391000	0.587536	0.312725
1.250000	6.385000	0.588159	0.316016
1.260000	6.372000	0.588847	0.319203
1.270000	6.353000	0.589602	0.322284
1.280000	6.329000	0.590426	0.325256
1.290000	6.302000	0.591317	0.328117
1.300000	6.274000	0.592275	0.330864
1.310000	6.247000	0.593299	0.333495
1.320000	6.222000	0.594388	0.336009
1.330000	6.200000	0.595537	0.338403
1.340000	6.183000	0.596744	0.340676
1.350000	6.170000	0.598009	0.342826
1.360000	6.161000	0.599330	0.344852
1.370000	6.155000	0.600707	0.346752
1.380000	6.152000	0.602138	0.348524
1.390000	6.149000	0.603621	0.350168
1.400000	6.145000	0.605155	0.351683
1.410000	6.139000	0.606738	0.353067
1.420000	6.130000	0.608365	0.354320
1.430000	6.118000	0.610036	0.355440
1.440000	6.102000	0.611746	0.356429
1.450000	6.084000	0.613493	0.357284
1.460000	6.063000	0.615273	0.358007
1.470000	6.042000	0.617082	0.358596
1.480000	6.020000	0.618916	0.359052
1.490000	6.000000	0.620770	0.359376
1.500000	5.982000	0.622641	0.359567
1.510000	5.966000	0.624523	0.359626
1.520000	5.954000	0.626411	0.359553
1.530000	5.945000	0.628299	0.359351
1.540000	5.939000	0.630183	0.359018
1.550000	5.935000	0.632056	0.358557
1.560000	5.933000	0.633920	0.357969
1.570000	5.931000	0.635770	0.357253
1.580000	5.928000	0.637602	0.356412
1.590000	5.925000	0.639411	0.355447
1.600000	5.920000	0.641194	0.354359
1.610000	5.914000	0.642945	0.353149
1.620000	5.907000	0.644660	0.351820
1.630000	5.898000	0.646335	0.350373
1.640000	5.890000	0.647966	0.348809
1.650000	5.882000	0.649549	0.347131
1.660000	5.876000	0.651079	0.345341
1.670000	5.872000	0.652552	0.343440
1.680000	5.870000	0.653963	0.341431
1.690000	5.870000	0.655310	0.339316
1.700000	5.873000	0.656587	0.337098
1.710000	5.879000	0.657791	0.334779
1.720000	5.886000	0.658918	0.332361
1.730000	5.894000	0.659963	0.329847
1.740000	5.903000	0.660923	0.327240
1.750000	5.912000	0.661794	0.324543
1.760000	5.920000	0.662572	0.321758
1.770000	5.927000	0.663255	0.318889
1.780000	5.934000	0.663843	0.315937
1.790000	5.939000	0.664333	0.312905
1.800000	5.943000	0.664722	0.309797
1.810000	5.946000	0.665008	0.306615
1.820000	5.950000	0.665187	0.303363
1.830000	5.952000	0.665257	0.300043
1.840000	5.955000	0.665214	0.296658
1.850000	5.958000	0.665056	0.293212
1.860000	5.961000	0.664781	0.289708
1.870000	5.963000	0.664386	0.286148
1.880000	5.964000	0.663867	0.282535
1.890000	5.965000	0.663223	0.278874
1.900000	5.964000	0.662451	0.275166
1.910000	5.961000	0.661548	0.271415
1.920000	5.956000	0.660512	0.267624
1.930000	5.949000	0.659340	0.263795
1.940000	5.941000	0.658030	0.259933
1.950000	5.931000	0.656581	0.256041
1.960000	5.920000	0.654988	0.252120
1.970000	5.908000	0.653250	0.248176
1.980000	5.897000	0.651366	0.244209
1.990000	5.887000	0.649338	0.240223
2.000000	5.878000	0.647166	0.236219
2.010000	5.871000	0.644846	0.232201
2.020000	5.865000	0.642376	0.228172
2.030000	5.861000	0.639754	0.224136
2.040000	5.858000	0.636978	0.220095
2.050000	5.855000	0.634046	0.216054
2.060000	5.853000	0.630956	0.212013
2.070000	5.850000	0.627710	0.207978
2.080000	5.845000	0.624304	0.203950
2.090000	5.839000	0.620740	0.199932
2.100000	5.831000	0.617017	0.195926
2.110000	5.822000	0.613135	0.191936
2.120000	5.810000	0.609096	0.187963
2.130000	5.798000	0.604900	0.184010
2.140000	5.785000	0.600548	0.180079
2.150000	5.771000	0.596042	0.176173
2.160000	5.759000	0.591385	0.172293
2.170000	5.747000	0.586578	0.168442
2.180000	5.737000	0.581624	0.164620
2.190000	5.730000	0.576525	0.160831
2.200000	5.724000	0.571286	0.157076
2.210000	5.720000	0.565910	0.153356
2.220000	5.718000	0.560399	0.149673
2.230000	5.717000	0.554760	0.146029
2.240000	5.718000	0.548996	0.142425
2.250000	5.719000	0.543111	0.138861
2.260000	5.720000	0.537112	0.135340
2.270000	5.721000	0.531004	0.131862
2.280000	5.722000	0.524792	0.128429
2.290000	5.722000	0.518483	0.125041
2.300000	5.722000	0.512082	0.121700
2.310000	5.721000	0.505594	0.118407
2.320000	5.720000	0.499025	0.115163
2.330000	5.719000	0.492380	0.111968
2.340000	5.717000	0.485663	0.108825
2.350000	5.715000	0.478880	0.105734
2.360000	5.712000	0.472037	0.102695
2.370000	5.708000	0.465140	0.099709
2.380000	5.703000	0.458193	0.096778
2.390000	5.698000	0.451204	0.093901
2.400000	5.692000	0.444177	0.091079
2.410000	5.685000	0.437120	0.088313
2.420000	5.678000	0.430038	0.085602
2.430000	5.671000	0.422938	0.082948
2.440000	5.665000	0.415826	0.080350
2.450000	5.662000	0.408708	0.077809
2.460000	5.661000	0.401593	0.075324
2.470000	5.664000	0.394486	0.072897
2.480000	5.671000	0.387395	0.070526
2.490000	5.683000	0.380326	0.068212
2.500000	5.700000	0.373287	0.065954
2.510000	5.721000	0.366285	0.063753
2.520000	5.746000	0.359328	0.061607
2.530000	5.774000	0.352423	0.059518
2.540000	5.803000	0.345578	0.057483
2.550000	5.832000	0.338801	0.055503
2.560000	5.859000	0.332100	0.053577
2.570000	5.883000	0.325483	0.051705
2.580000	5.902000	0.318958	0.049886
2.590000	5.915000	0.312534	0.048118
2.600000	5.922000	0.306216	0.046403
2.610000	5.923000	0.300010	0.044742
2.620000	5.918000	0.293919	0.043135
2.630000	5.909000	0.287949	0.041579
2.640000	5.895000	0.282103	0.040076
2.650000	5.880000	0.276386	0.038623
2.660000	5.863000	0.270803	0.037221
2.670000	5.848000	0.265356	0.035868
2.680000	5.835000	0.260049	0.034565
2.690000	5.825000	0.254887	0.033311
2.700000	5.819000	0.249871	0.032105
2.710000	5.817000	0.245006	0.030947
2.720000	5.819000	0.240294	0.029836
2.730000	5.823000	0.235737	0.028772
2.740000	5.829000	0.231339	0.027754
2.750000	5.836000	0.227101	0.026782
2.760000	5.844000	0.223025	0.025855
2.770000	5.850000	0.219115	0.024973
2.780000	5.854000	0.215370	0.024137
2.790000	5.855000	0.211793	0.023344
2.800000	5.855000	0.208384	0.022596
2.810000	5.852000	0.205146	0.021892
2.820000	5.847000	0.202079	0.021231
2.830000	5.841000	0.199183	0.020614
2.840000	5.835000	0.196460	0.020039
2.850000	5.829000	0.193909	0.019508
2.860000	5.825000	0.191530	0.019019
2.870000	5.823000	0.189325	0.018572
2.880000	5.823000	0.187292	0.018168
2.890000	5.826000	0.185430	0.017806
2.900000	5.832000	0.183738	0.017486
2.910000	5.839000	0.182215	0.017208
2.920000	5.849000	0.180865	0.016971
2.930000	5.861000	0.179687	0.016774
2.940000	5.873000	0.178683	0.016618
2.950000	5.886000	0.177854	0.016503
2.960000	5.899000	0.177199	0.016428
2.970000	5.912000	0.176721	0.016393
2.980000	5.925000	0.176417	0.016398
2.990000	5.937000	0.176288	0.016442
3.000000	5.948000	0.176333	0.016526
3.010000	5.959000	0.176551	0.016650
3.020000	5.969000	0.176941	0.016813
3.030000	5.978000	0.177501	0.017015
3.040000	5.987000	0.178229	0.017257
3.050000	5.993000	0.179123	0.017539
3.060000	5.998000	0.180181	0.017859
3.070000	6.000000	0.181399	0.018220
3.080000	6.000000	0.182775	0.018620
3.090000	5.997000	0.184306	0.019059
3.100000	5.992000	0.185987	0.019539
3.110000	5.984000	0.187816	0.020058
3.120000	5.973000	0.189787	0.020617
3.130000	5.961000	0.191896	0.021217
3.140000	5.949000	0.194138	0.021858
3.150000	5.936000	0.196508	0.022539
3.160000	5.925000	0.199002	0.023261
3.170000	5.916000	0.201612	0.024025
3.180000	5.909000	0.204339	0.024829
3.190000	5.906000	0.207178	0.025674
3.200000	5.907000	0.210125	0.026560
3.210000	5.911000	0.213175	0.027487
3.220000	5.919000	0.216323	0.028455
3.230000	5.928000	0.219563	0.029465
3.240000	5.939000	0.222890	0.030516
3.250000	5.950000	0.226301	0.031610
3.260000	5.960000	0.229789	0.032745
3.270000	5.968000	0.233350	0.033922
3.280000	5.973000	0.236979	0.035141
3.290000	5.973000	0.240672	0.036402
3.300000	5.970000	0.244424	0.037706
3.310000	5.963000	0.248231	0.039051
3.320000	5.953000	0.252089	0.040438
3.330000	5.940000	0.255992	0.041868
3.340000	5.925000	0.259936	0.043339
3.350000	5.910000	0.263918	0.044852
3.360000	5.897000	0.267933	0.046406
3.370000	5.885000	0.271977	0.048001
3.380000	5.876000	0.276047	0.049638
3.390000	5.870000	0.280137	0.051316
3.400000	5.869000	0.284244	0.053034
3.410000	5.872000	0.288365	0.054792
3.420000	5.878000	0.292496	0.056591
3.430000	5.887000	0.296633	0.058429
3.440000	5.898000	0.300772	0.060306
3.450000	5.910000	0.304909	0.062222
3.460000	5.922000	0.309048	0.064177
3.470000	5.933000	0.313189	0.066169
3.480000	5.942000	0.317330	0.068199
3.490000	5.948000	0.321466	0.070266
3.500000	5.951000	0.325594	0.072369
3.510000	5.951000	0.329710	0.074507
3.520000	5.946000	0.333810	0.076681
3.530000	5.939000	0.337893	0.078888
3.540000	5.929000	0.341954	0.081129
3.550000	5.916000	0.345991	0.083403
3.560000	5.902000	0.350001	0.085708
3.570000	5.887000	0.353982	0.088045
3.580000	5.873000	0.357932	0.090412
3.590000	5.859000	0.361847	0.092808
3.600000	5.846000	0.365727	0.095232
3.610000	5.836000	0.369570	0.097684
3.620000	5.829000	0.373374	0.100162
3.630000	5.825000	0.377137	0.102665
3.640000	5.826000	0.380858	0.105193
3.650000	5.830000	0.384536	0.107743
3.660000	5.839000	0.388170	0.110316
3.670000	5.851000	0.391760	0.112909
3.680000	5.867000	0.395304	0.115522
3.690000	5.886000	0.398802	0.118152
3.700000	5.908000	0.402255	0.120800
3.710000	5.930000	0.405661	0.123464
3.720000	5.953000	0.409021	0.126142
3.730000	5.975000	0.412336	0.128833
3.740000	5.995000	0.415604	0.131535
3.750000	6.013000	0.418828	0.134247
3.760000	6.027000	0.422010	0.136968
3.770000	6.038000	0.425161	0.139696
3.780000	6.044000	0.428281	0.142431
3.790000	6.046000	0.431371	0.145169
3.800000	6.043000	0.434428	0.147910
3.810000	6.037000	0.437452	0.150652
3.820000	6.028000	0.440442	0.153394
3.830000	6.016000	0.443397	0.156133
3.840000	6.002000	0.446316	0.158868
3.850000	5.988000	0.449199	0.161598
3.860000	5.973000	0.452045	0.164321
3.870000	5.958000	0.454852	0.167035
3.880000	5.944000	0.457622	0.169739
3.890000	5.931000	0.460352	0.172431
3.900000	5.919000	0.463042	0.175109
3.910000	5.907000	0.465692	0.177773
3.920000	5.897000	0.468302	0.180420
3.930000	5.887000	0.470870	0.183048
3.940000	5.878000	0.473396	0.185657
3.950000	5.870000	0.475881	0.188245
3.960000	5.863000	0.478323	0.190810
3.970000	5.857000	0.480723	0.193351
3.980000	5.852000	0.483079	0.195866
3.990000	5.848000	0.485392	0.198354
4.000000	5.847000	0.487662	0.200813
4.010000	5.848000	0.489889	0.203241
4.020000	5.850000	0.492072	0.205638
4.030000	5.855000	0.494211	0.208001
4.040000	5.862000	0.496306	0.210330
4.050000	5.870000	0.498358	0.212622
4.060000	5.878000	0.500366	0.214877
4.070000	5.887000	0.502337	0.217093
4.080000	5.894000	0.504278	0.219268
4.090000	5.900000	0.506187	0.221402
4.100000	5.903000	0.508065	0.223493
4.110000	5.903000	0.509913	0.225539
4.120000	5.899000	0.511729	0.227539
4.130000	5.892000	0.513515	0.229492
4.140000	5.881000	0.515270	0.231397
4.150000	5.867000	0.516993	0.233252
4.160000	5.850000	0.518684	0.235056
4.170000	5.832000	0.520342	0.236808
4.180000	5.814000	0.521968	0.238507
4.190000	5.795000	0.523560	0.240152
4.200000	5.778000	0.525116	0.241741
4.210000	5.763000	0.526638	0.243275
4.220000	5.750000	0.528122	0.244752
4.230000	5.740000	0.529569	0.246171
4.240000	5.732000	0.530977	0.247532
4.250000	5.728000	0.532344	0.248833
4.260000	5.725000	0.533670	0.250075
4.270000	5.725000	0.534952	0.251255
4.280000	5.726000	0.536190	0.252375
4.290000	5.728000	0.537380	0.253433
4.300000	5.731000	0.538523	0.254429
4.310000	5.735000	0.539618	0.255362
4.320000	5.738000	0.540676	0.256232
4.330000	5.742000	0.541696	0.257038
4.340000	5.745000	0.542679	0.257779
4.350000	5.748000	0.543625	0.258456
4.360000	5.751000	0.544532	0.259067
4.370000	5.752000	0.545401	0.259614
4.380000	5.753000	0.546230	0.260094
4.390000	5.752000	0.547020	0.260509
4.400000	5.748000	0.547769	0.260858
4.410000	5.742000	0.548476	0.261141
4.420000	5.733000	0.549139	0.261357
4.430000	5.720000	0.549759	0.261507
4.440000	5.704000	0.550332	0.261592
4.450000	5.684000	0.550858	0.261610
4.460000	5.661000	0.551334	0.261562
4.470000	5.635000	0.551759	0.261449
4.480000	5.609000	0.552131	0.261271
4.490000	5.582000	0.552448	0.261027
4.500000	5.557000	0.552707	0.260719
4.510000	5.535000	0.552905	0.260346
4.520000	5.517000	0.553041	0.259909
4.530000	5.505000	0.553111	0.259409
4.540000	5.499000	0.553113	0.258847
4.550000	5.501000	0.553044	0.258222
4.560000	5.509000	0.552904	0.257535
4.570000	5.524000	0.552696	0.256787
4.580000	5.544000	0.552423	0.255978
4.590000	5.569000	0.552090	0.255109
4.600000	5.597000	0.551697	0.254180
4.610000	5.625000	0.551249	0.253193
4.620000	5.652000	0.550747	0.252148
4.630000	5.677000	0.550192	0.251046
4.640000	5.698000	0.549588	0.249887
4.650000	5.713000	0.548934	0.248674
4.660000	5.722000	0.548232	0.247405
4.670000	5.725000	0.547483	0.246084
4.680000	5.721000	0.546688	0.244709
4.690000	5.713000	0.545846	0.243283
4.700000	5.699000	0.544958	0.241806
4.710000	5.683000	0.544023	0.240280
4.720000	5.665000	0.543041	0.238705
4.730000	5.646000	0.542012	0.237082
4.740000	5.628000	0.540933	0.235414
4.750000	5.613000	0.539799	0.233700
4.760000	5.601000	0.538605	0.231942
4.770000	5.592000	0.537351	0.230141
4.780000	5.589000	0.536037	0.228299
4.790000	5.589000	0.534663	0.226417
4.800000	5.594000	0.533230	0.224497
4.810000	5.603000	0.531738	0.222538
4.820000	5.614000	0.530189	0.220544
4.830000	5.628000	0.528583	0.218514
4.840000	5.643000	0.526922	0.216451
4.850000	5.658000	0.525207	0.214356
4.860000	5.672000	0.523438	0.212230
4.870000	5.685000	0.521618	0.210075
4.880000	5.694000	0.519748	0.207891
4.890000	5.701000	0.517830	0.205681
4.900000	5.703000	0.515866	0.203445
4.910000	5.702000	0.513858	0.201186
4.920000	5.697000	0.511807	0.198903
4.930000	5.688000	0.509715	0.196600
4.940000	5.677000	0.507571	0.194277
4.950000	5.664000	0.505375	0.191935
4.960000	5.650000	0.503127	0.189576
4.970000	5.636000	0.500826	0.187201
4.980000	5.624000	0.498475	0.184813
4.990000	5.615000	0.496073	0.182412
5.000000	5.609000	0.493622	0.180000
5.010000	5.608000	0.491122	0.177579
5.020000	5.611000	0.488575	0.175150
5.030000	5.618000	0.485981	0.172714
5.040000	5.630000	0.483343	0.170272
5.050000	5.646000	0.480662	0.167827
5.060000	5.665000	0.477939	0.165379
5.070000	5.684000	0.475176	0.162931
5.080000	5.704000	0.472376	0.160482
5.090000	5.723000	0.469540	0.158035
5.100000	5.740000	0.466671	0.155591
5.110000	5.753000	0.463771	0.153151
5.120000	5.763000	0.460842	0.150716
5.130000	5.768000	0.457888	0.148288
5.140000	5.770000	0.454910	0.145868
5.150000	5.768000	0.451913	0.143457
5.160000	5.763000	0.448898	0.141057
5.170000	5.757000	0.445870	0.138668
5.180000	5.751000	0.442831	0.136292
5.190000	5.744000	0.439786	0.133930
5.200000	5.739000	0.436736	0.131583
5.210000	5.735000	0.433680	0.129252
5.220000	5.734000	0.430613	0.126938
5.230000	5.734000	0.427535	0.124643
5.240000	5.736000	0.424448	0.122368
5.250000	5.738000	0.421351	0.120113
5.260000	5.740000	0.418247	0.117880
5.270000	5.741000	0.415135	0.115671
5.280000	5.740000	0.412017	0.113485
5.290000	5.737000	0.408893	0.111325
5.300000	5.731000	0.405765	0.109191
5.310000	5.723000	0.402634	0.107085
5.320000	5.712000	0.399500	0.105006
5.330000	5.700000	0.396365	0.102957
5.340000	5.687000	0.393229	0.100937
5.350000	5.674000	0.390095	0.098949
5.360000	5.664000	0.386963	0.096992
5.370000	5.656000	0.383835	0.095067
5.380000	5.652000	0.380711	0.093176
5.390000	5.652000	0.377593	0.091318
5.400000	5.656000	0.374483	0.089496
5.410000	5.664000	0.371381	0.087708
5.420000	5.674000	0.368290	0.085956
5.430000	5.687000	0.365210	0.084241
5.440000	5.700000	0.362144	0.082563
5.450000	5.713000	0.359092	0.080923
5.460000	5.724000	0.356057	0.079320
5.470000	5.733000	0.353040	0.077756
5.480000	5.738000	0.350042	0.076231
5.490000	5.739000	0.347066	0.074746
5.500000	5.738000	0.344112	0.073300
5.510000	5.733000	0.341184	0.071894
5.520000	5.726000	0.338285	0.070529
