# Time (s), Wind Speed (m/s), Blade Displacement (m), Tower Displacement (m)
0.000000	16.890000	0.000000	0.000000
0.010000	16.912000	0.000372	0.000000
0.020000	16.936000	0.001485	0.000000
0.030000	16.960000	0.003333	0.000001
0.040000	16.984000	0.005908	0.000003
0.050000	17.008000	0.009202	0.000007
0.060000	17.033000	0.013207	0.000014
0.070000	17.058000	0.017912	0.000026
0.080000	17.087000	0.023307	0.000044
0.090000	17.119000	0.029382	0.000069
0.100000	17.155000	0.036123	0.000104
0.110000	17.197000	0.043520	0.000150
0.120000	17.243000	0.051560	0.000211
0.130000	17.292000	0.060230	0.000287
0.140000	17.342000	0.069517	0.000383
0.150000	17.389000	0.079405	0.000501
0.160000	17.430000	0.089884	0.000644
0.170000	17.462000	0.100937	0.000815
0.180000	17.480000	0.112543	0.001017
0.190000	17.484000	0.124684	0.001255
0.200000	17.471000	0.137336	0.001531
0.210000	17.443000	0.150477	0.001849
0.220000	17.401000	0.164083	0.002213
0.230000	17.348000	0.178130	0.002627
0.240000	17.290000	0.192592	0.003094
0.250000	17.232000	0.207443	0.003620
0.260000	17.180000	0.222654	0.004208
0.270000	17.139000	0.238198	0.004862
0.280000	17.116000	0.254045	0.005587
0.290000	17.114000	0.270166	0.006386
0.300000	17.134000	0.286541	0.007264
0.310000	17.178000	0.303151	0.008226
0.320000	17.245000	0.319979	0.009275
0.330000	17.331000	0.337006	0.010417
0.340000	17.432000	0.354215	0.011655
0.350000	17.543000	0.371589	0.012994
0.360000	17.659000	0.389112	0.014438
0.370000	17.775000	0.406766	0.015991
0.380000	17.885000	0.424537	0.017657
0.390000	17.985000	0.442408	0.019440
0.400000	18.074000	0.460365	0.021344
0.410000	18.148000	0.478392	0.023372
0.420000	18.207000	0.496476	0.025529
0.430000	18.251000	0.514601	0.027818
0.440000	18.280000	0.532755	0.030242
0.450000	18.293000	0.550925	0.032805
0.460000	18.291000	0.569099	0.035509
0.470000	18.275000	0.587248	0.038358
0.480000	18.243000	0.605343	0.041355
0.490000	18.196000	0.623352	0.044503
0.500000	18.133000	0.641248	0.047806
0.510000	18.054000	0.659004	0.051265
0.520000	17.960000	0.676591	0.054884
0.530000	17.851000	0.693986	0.058664
0.540000	17.732000	0.711163	0.062609
0.550000	17.605000	0.728099	0.066718
0.560000	17.475000	0.744771	0.070994
0.570000	17.348000	0.761157	0.075438
0.580000	17.231000	0.777238	0.080051
0.590000	17.130000	0.792993	0.084833
0.600000	17.050000	0.808404	0.089785
0.610000	16.995000	0.823453	0.094908
0.620000	16.969000	0.838125	0.100201
0.630000	16.972000	0.852403	0.105663
0.640000	17.002000	0.866273	0.111295
0.650000	17.056000	0.879721	0.117095
0.660000	17.129000	0.892737	0.123062
0.670000	17.212000	0.905335	0.129195
0.680000	17.300000	0.917527	0.135490
0.690000	17.383000	0.929312	0.141946
0.700000	17.456000	0.940690	0.148561
0.710000	17.513000	0.951661	0.155333
0.720000	17.551000	0.962225	0.162261
0.730000	17.568000	0.972385	0.169339
0.740000	17.567000	0.982140	0.176567
0.750000	17.548000	0.991493	0.183941
0.760000	17.518000	1.000446	0.191456
0.770000	17.481000	1.009000	0.199109
0.780000	17.443000	1.017158	0.206897
0.790000	17.409000	1.024924	0.214813
0.800000	17.383000	1.032301	0.222855
0.810000	17.367000	1.039292	0.231017
0.820000	17.362000	1.045900	0.239292
0.830000	17.365000	1.052132	0.247677
0.840000	17.375000	1.057990	0.256166
0.850000	17.387000	1.063480	0.264751
0.860000	17.396000	1.068607	0.273426
0.870000	17.398000	1.073376	0.282186
0.880000	17.388000	1.077794	0.291023
0.890000	17.365000	1.081867	0.299929
0.900000	17.326000	1.085602	0.308898
0.910000	17.274000	1.089004	0.317921
0.920000	17.211000	1.092082	0.326991
0.930000	17.142000	1.094839	0.336102
0.940000	17.070000	1.097280	0.345248
0.950000	17.003000	1.099417	0.354422
0.960000	16.945000	1.101257	0.363615
0.970000	16.900000	1.102813	0.372820
0.980000	16.870000	1.104095	0.382029
0.990000	16.858000	1.105114	0.391234
1.000000	16.862000	1.105883	0.400427
1.010000	16.879000	1.106415	0.409600
1.020000	16.906000	1.106724	0.418744
1.030000	16.939000	1.106823	0.427853
1.040000	16.972000	1.106729	0.436918
1.050000	17.001000	1.106455	0.445930
1.060000	17.024000	1.106019	0.454881
1.070000	17.039000	1.105436	0.463764
1.080000	17.046000	1.104726	0.472569
1.090000	17.048000	1.103905	0.481289
1.100000	17.047000	1.102992	0.489914
1.110000	17.047000	1.102008	0.498437
1.120000	17.055000	1.100965	0.506850
1.130000	17.073000	1.099864	0.515145
1.140000	17.104000	1.098723	0.523314
1.150000	17.152000	1.097562	0.531350
1.160000	17.214000	1.096402	0.539245
1.170000	17.290000	1.095261	0.546991
1.180000	17.374000	1.094157	0.554581
1.190000	17.462000	1.093107	0.562008
1.200000	17.545000	1.092127	0.569265
1.210000	17.618000	1.091234	0.576345
1.220000	17.674000	1.090442	0.583241
1.230000	17.707000	1.089765	0.589948
1.240000	17.714000	1.089217	0.596458
1.250000	17.693000	1.088810	0.602766
1.260000	17.646000	1.088555	0.608866
1.270000	17.576000	1.088457	0.614753
1.280000	17.488000	1.088507	0.620421
1.290000	17.389000	1.088703	0.625865
1.300000	17.286000	1.089042	0.631081
1.310000	17.185000	1.089524	0.636062
1.320000	17.093000	1.090145	0.640806
1.330000	17.014000	1.090904	0.645308
1.340000	16.950000	1.091799	0.649564
1.350000	16.904000	1.092827	0.653570
1.360000	16.872000	1.093987	0.657324
1.370000	16.851000	1.095278	0.660823
1.380000	16.838000	1.096696	0.664063
1.390000	16.827000	1.098240	0.667043
1.400000	16.813000	1.099909	0.669760
1.410000	16.792000	1.101701	0.672212
1.420000	16.760000	1.103617	0.674399
1.430000	16.716000	1.105653	0.676319
1.440000	16.659000	1.107803	0.677969
1.450000	16.592000	1.110059	0.679351
1.460000	16.517000	1.112413	0.680462
1.470000	16.437000	1.114858	0.681303
1.480000	16.358000	1.117385	0.681873
1.490000	16.284000	1.119985	0.682173
1.500000	16.217000	1.122651	0.682204
1.510000	16.161000	1.125372	0.681965
1.520000	16.117000	1.128140	0.681459
1.530000	16.085000	1.130945	0.680687
1.540000	16.063000	1.133777	0.679651
1.550000	16.049000	1.136625	0.678351
1.560000	16.040000	1.139480	0.676792
1.570000	16.033000	1.142336	0.674975
1.580000	16.025000	1.145190	0.672902
1.590000	16.013000	1.148034	0.670576
1.600000	15.996000	1.150858	0.668001
1.610000	15.974000	1.153653	0.665179
1.620000	15.947000	1.156409	0.662113
1.630000	15.918000	1.159116	0.658808
1.640000	15.888000	1.161765	0.655268
1.650000	15.860000	1.164346	0.651495
1.660000	15.837000	1.166851	0.647495
1.670000	15.821000	1.169270	0.643271
1.680000	15.814000	1.171594	0.638828
1.690000	15.816000	1.173813	0.634172
1.700000	15.828000	1.175918	0.629307
1.710000	15.848000	1.177900	0.624238
1.720000	15.875000	1.179750	0.618970
1.730000	15.907000	1.181459	0.613510
1.740000	15.940000	1.183018	0.607862
1.750000	15.973000	1.184426	0.602032
1.760000	16.004000	1.185678	0.596025
1.770000	16.032000	1.186767	0.589848
1.780000	16.055000	1.187686	0.583506
1.790000	16.075000	1.188429	0.577006
1.800000	16.091000	1.188990	0.570353
1.810000	16.105000	1.189361	0.563555
1.820000	16.116000	1.189536	0.556616
1.830000	16.127000	1.189508	0.549543
1.840000	16.138000	1.189270	0.542344
1.850000	16.149000	1.188816	0.535023
1.860000	16.159000	1.188139	0.527588
1.870000	16.168000	1.187231	0.520044
1.880000	16.175000	1.186086	0.512399
1.890000	16.177000	1.184697	0.504659
1.900000	16.174000	1.183057	0.496831
1.910000	16.164000	1.181158	0.488921
1.920000	16.146000	1.178995	0.480935
1.930000	16.122000	1.176558	0.472882
1.940000	16.091000	1.173843	0.464766
1.950000	16.054000	1.170839	0.456592
1.960000	16.014000	1.167540	0.448369
1.970000	15.972000	1.163938	0.440103
1.980000	15.932000	1.160026	0.431800
1.990000	15.895000	1.155799	0.423467
2.000000	15.863000	1.151250	0.415110
2.010000	15.836000	1.146375	0.406736
2.020000	15.816000	1.141169	0.398351
2.030000	15.801000	1.135629	0.389961
2.040000	15.789000	1.129752	0.381571
2.050000	15.781000	1.123535	0.373187
2.060000	15.772000	1.116976	0.364815
2.070000	15.760000	1.110074	0.356461
2.080000	15.744000	1.102828	0.348129
2.090000	15.723000	1.095238	0.339825
2.100000	15.694000	1.087304	0.331553
2.110000	15.659000	1.079029	0.323319
2.120000	15.618000	1.070412	0.315127
2.130000	15.572000	1.061458	0.306983
2.140000	15.524000	1.052167	0.298889
2.150000	15.475000	1.042545	0.290852
2.160000	15.429000	1.032596	0.282874
2.170000	15.388000	1.022320	0.274959
2.180000	15.352000	1.011718	0.267108
2.190000	15.323000	1.000797	0.259327
2.200000	15.302000	0.989559	0.251619
2.210000	15.289000	0.978011	0.243990
2.220000	15.282000	0.966158	0.236442
2.230000	15.280000	0.954008	0.228980
2.240000	15.282000	0.941567	0.221607
2.250000	15.286000	0.928842	0.214326
2.260000	15.291000	0.915843	0.207140
2.270000	15.295000	0.902578	0.200052
2.280000	15.299000	0.889056	0.193065
2.290000	15.301000	0.875288	0.186181
2.300000	15.301000	0.861282	0.179402
2.310000	15.299000	0.847051	0.172729
2.320000	15.296000	0.832606	0.166166
2.330000	15.291000	0.817959	0.159712
2.340000	15.284000	0.803123	0.153369
2.350000	15.276000	0.788110	0.147138
2.360000	15.265000	0.772935	0.141021
2.370000	15.252000	0.757612	0.135016
2.380000	15.235000	0.742155	0.129125
2.390000	15.215000	0.726580	0.123348
2.400000	15.192000	0.710902	0.117685
2.410000	15.167000	0.695139	0.112134
2.420000	15.141000	0.679307	0.106696
2.430000	15.117000	0.663424	0.101370
2.440000	15.096000	0.647508	0.096154
2.450000	15.083000	0.631577	0.091048
2.460000	15.081000	0.615649	0.086049
2.470000	15.092000	0.599725	0.081161
2.480000	15.119000	0.583820	0.076385
2.490000	15.163000	0.567957	0.071718
2.500000	15.226000	0.552156	0.067162
2.510000	15.305000	0.536437	0.062716
2.520000	15.397000	0.520818	0.058378
2.530000	15.500000	0.505319	0.054148
2.540000	15.608000	0.489958	0.050026
2.550000	15.716000	0.474753	0.046010
2.560000	15.816000	0.459720	0.042100
2.570000	15.904000	0.444878	0.038294
2.580000	15.975000	0.430241	0.034593
2.590000	16.024000	0.415825	0.030993
2.600000	16.051000	0.401645	0.027496
2.610000	16.055000	0.387717	0.024099
2.620000	16.037000	0.374053	0.020800
2.630000	16.001000	0.360668	0.017600
2.640000	15.952000	0.347574	0.014496
2.650000	15.895000	0.334784	0.011487
2.660000	15.835000	0.322310	0.008571
2.670000	15.779000	0.310162	0.005747
2.680000	15.732000	0.298353	0.003014
2.690000	15.696000	0.286891	0.000369
2.700000	15.674000	0.275787	-0.002189
2.710000	15.666000	0.265050	-0.004663
2.720000	15.671000	0.254689	-0.007053
2.730000	15.688000	0.244710	-0.009361
2.740000	15.711000	0.235111	-0.011585
2.750000	15.739000	0.225898	-0.013725
2.760000	15.765000	0.217078	-0.015782
2.770000	15.788000	0.208658	-0.017758
2.780000	15.803000	0.200645	-0.019653
2.790000	15.810000	0.193043	-0.021469
2.800000	15.808000	0.185858	-0.023206
2.810000	15.797000	0.179095	-0.024865
2.820000	15.780000	0.172758	-0.026447
2.830000	15.758000	0.166850	-0.027953
2.840000	15.736000	0.161374	-0.029382
2.850000	15.715000	0.156331	-0.030736
2.860000	15.700000	0.151725	-0.032015
2.870000	15.692000	0.147555	-0.033219
2.880000	15.694000	0.143822	-0.034348
2.890000	15.704000	0.140527	-0.035402
2.900000	15.725000	0.137668	-0.036380
2.910000	15.754000	0.135244	-0.037284
2.920000	15.791000	0.133254	-0.038112
2.930000	15.833000	0.131694	-0.038865
2.940000	15.879000	0.130563	-0.039541
2.950000	15.927000	0.129855	-0.040140
2.960000	15.976000	0.129568	-0.040662
2.970000	16.024000	0.129697	-0.041106
2.980000	16.071000	0.130248	-0.041472
2.990000	16.116000	0.131235	-0.041758
3.000000	16.159000	0.132654	-0.041966
3.010000	16.199000	0.134500	-0.042095
3.020000	16.237000	0.136770	-0.042143
3.030000	16.272000	0.139458	-0.042110
3.040000	16.302000	0.142559	-0.041996
3.050000	16.326000	0.146066	-0.041800
3.060000	16.344000	0.149971	-0.041520
3.070000	16.353000	0.154268	-0.041156
3.080000	16.353000	0.158947	-0.040708
3.090000	16.343000	0.164000	-0.040173
3.100000	16.323000	0.169418	-0.039551
3.110000	16.293000	0.175189	-0.038841
3.120000	16.255000	0.181304	-0.038042
3.130000	16.212000	0.187750	-0.037153
3.140000	16.165000	0.194516	-0.036171
3.150000	16.119000	0.201588	-0.035097
3.160000	16.078000	0.208953	-0.033928
3.170000	16.044000	0.216597	-0.032663
3.180000	16.021000	0.224506	-0.031301
3.190000	16.011000	0.232664	-0.029839
3.200000	16.014000	0.241056	-0.028278
3.210000	16.030000	0.249665	-0.026614
3.220000	16.057000	0.258498	-0.024849
3.230000	16.093000	0.267551	-0.022980
3.240000	16.134000	0.276810	-0.021008
3.250000	16.175000	0.286263	-0.018930
3.260000	16.212000	0.295897	-0.016746
3.270000	16.241000	0.305699	-0.014455
3.280000	16.259000	0.315657	-0.012055
3.290000	16.262000	0.325758	-0.009545
3.300000	16.251000	0.335989	-0.006925
3.310000	16.226000	0.346339	-0.004194
3.320000	16.188000	0.356794	-0.001351
3.330000	16.140000	0.367343	0.001604
3.340000	16.087000	0.377973	0.004673
3.350000	16.032000	0.388671	0.007855
3.360000	15.981000	0.399427	0.011151
3.370000	15.937000	0.410227	0.014560
3.380000	15.905000	0.421060	0.018085
3.390000	15.886000	0.431914	0.021724
3.400000	15.881000	0.442777	0.025477
3.410000	15.891000	0.453637	0.029346
3.420000	15.914000	0.464483	0.033328
3.430000	15.948000	0.475302	0.037425
3.440000	15.989000	0.486084	0.041637
3.450000	16.034000	0.496816	0.045962
3.460000	16.079000	0.507488	0.050400
3.470000	16.120000	0.518102	0.054951
3.480000	16.153000	0.528674	0.059613
3.490000	16.176000	0.539194	0.064385
3.500000	16.188000	0.549650	0.069266
3.510000	16.186000	0.560033	0.074254
3.520000	16.172000	0.570333	0.079350
3.530000	16.145000	0.580540	0.084550
3.540000	16.108000	0.590647	0.089855
3.550000	16.062000	0.600644	0.095261
3.560000	16.010000	0.610526	0.100768
3.570000	15.956000	0.620284	0.106374
3.580000	15.901000	0.629913	0.112076
3.590000	15.850000	0.639408	0.117872
3.600000	15.804000	0.648762	0.123761
3.610000	15.768000	0.657972	0.129739
3.620000	15.742000	0.667033	0.135804
3.630000	15.729000	0.675941	0.141954
3.640000	15.731000	0.684695	0.148185
3.650000	15.748000	0.693292	0.154495
3.660000	15.780000	0.701730	0.160881
3.670000	15.826000	0.710007	0.167339
3.680000	15.886000	0.718124	0.173866
3.690000	15.956000	0.726080	0.180459
3.700000	16.035000	0.733876	0.187114
3.710000	16.119000	0.741513	0.193827
3.720000	16.203000	0.748992	0.200595
3.730000	16.286000	0.756316	0.207413
3.740000	16.361000	0.763496	0.214278
3.750000	16.427000	0.770558	0.221187
3.760000	16.481000	0.777504	0.228135
3.770000	16.519000	0.784336	0.235119
3.780000	16.542000	0.791054	0.242133
3.790000	16.549000	0.797660	0.249173
3.800000	16.541000	0.804154	0.256235
3.810000	16.518000	0.810538	0.263315
3.820000	16.484000	0.816812	0.270407
3.830000	16.441000	0.822977	0.277507
3.840000	16.391000	0.829034	0.284611
3.850000	16.337000	0.834984	0.291714
3.860000	16.283000	0.840828	0.298811
3.870000	16.229000	0.846566	0.305899
3.880000	16.178000	0.852199	0.312972
3.890000	16.130000	0.857728	0.320026
3.900000	16.085000	0.863154	0.327056
3.910000	16.044000	0.868476	0.334058
3.920000	16.006000	0.873696	0.341028
3.930000	15.971000	0.878814	0.347959
3.940000	15.938000	0.883830	0.354849
3.950000	15.909000	0.888746	0.361692
3.960000	15.882000	0.893561	0.368483
3.970000	15.860000	0.898276	0.375218
3.980000	15.842000	0.902892	0.381893
3.990000	15.830000	0.907408	0.388502
4.000000	15.826000	0.911824	0.395041
4.010000	15.828000	0.916142	0.401505
4.020000	15.839000	0.920362	0.407889
4.030000	15.857000	0.924483	0.414189
4.040000	15.882000	0.928505	0.420400
4.050000	15.912000	0.932437	0.426518
4.060000	15.944000	0.936302	0.432540
4.070000	15.976000	0.940107	0.438462
4.080000	16.004000	0.943854	0.444280
4.090000	16.026000	0.947547	0.449988
4.100000	16.038000	0.951188	0.455583
4.110000	16.038000	0.954780	0.461060
4.120000	16.024000	0.958323	0.466417
4.130000	15.997000	0.961820	0.471647
4.140000	15.957000	0.965271	0.476749
4.150000	15.906000	0.968677	0.481718
4.160000	15.846000	0.972039	0.486552
4.170000	15.780000	0.975355	0.491245
4.180000	15.712000	0.978626	0.495797
4.190000	15.645000	0.981851	0.500203
4.200000	15.582000	0.985028	0.504460
4.210000	15.526000	0.988155	0.508566
4.220000	15.479000	0.991230	0.512518
4.230000	15.442000	0.994252	0.516314
4.240000	15.415000	0.997217	0.519951
4.250000	15.398000	1.000121	0.523427
4.260000	15.390000	1.002962	0.526740
4.270000	15.389000	1.005735	0.529888
4.280000	15.394000	1.008436	0.532868
4.290000	15.403000	1.011059	0.535681
4.300000	15.415000	1.013607	0.538323
4.310000	15.428000	1.016098	0.540793
4.320000	15.442000	1.018537	0.543090
4.330000	15.456000	1.020923	0.545212
4.340000	15.469000	1.023255	0.547158
4.350000	15.480000	1.025534	0.548926
4.360000	15.490000	1.027758	0.550516
4.370000	15.496000	1.029926	0.551927
4.380000	15.498000	1.032036	0.553159
4.390000	15.494000	1.034085	0.554209
4.400000	15.482000	1.036070	0.555079
4.410000	15.460000	1.037989	0.555768
4.420000	15.426000	1.039838	0.556276
4.430000	15.379000	1.041613	0.556603
4.440000	15.319000	1.043309	0.556749
4.450000	15.246000	1.044921	0.556714
4.460000	15.162000	1.046444	0.556500
4.470000	15.070000	1.047872	0.556107
4.480000	14.972000	1.049198	0.555536
4.490000	14.875000	1.050418	0.554788
4.500000	14.782000	1.051522	0.553864
4.510000	14.701000	1.052503	0.552765
4.520000	14.636000	1.053355	0.551493
4.530000	14.591000	1.054067	0.550050
4.540000	14.570000	1.054632	0.548438
4.550000	14.575000	1.055040	0.546658
4.560000	14.607000	1.055290	0.544710
4.570000	14.662000	1.055388	0.542598
4.580000	14.738000	1.055338	0.540322
4.590000	14.830000	1.055146	0.537886
4.600000	14.932000	1.054817	0.535290
4.610000	15.037000	1.054353	0.532538
4.620000	15.139000	1.053758	0.529632
4.630000	15.231000	1.053036	0.526573
4.640000	15.307000	1.052187	0.523366
4.650000	15.363000	1.051215	0.520012
4.660000	15.398000	1.050119	0.516514
4.670000	15.408000	1.048900	0.512875
4.680000	15.397000	1.047560	0.509098
4.690000	15.365000	1.046096	0.505186
4.700000	15.316000	1.044508	0.501141
4.710000	15.255000	1.042795	0.496967
4.720000	15.188000	1.040955	0.492667
4.730000	15.120000	1.038978	0.488245
4.740000	15.055000	1.036844	0.483703
4.750000	14.998000	1.034549	0.479046
4.760000	14.953000	1.032087	0.474277
4.770000	14.924000	1.029455	0.469399
4.780000	14.910000	1.026650	0.464416
4.790000	14.912000	1.023670	0.459332
4.800000	14.931000	1.020513	0.454151
4.810000	14.963000	1.017180	0.448876
4.820000	15.006000	1.013669	0.443511
4.830000	15.058000	1.009982	0.438059
4.840000	15.113000	1.006120	0.432525
4.850000	15.169000	1.002087	0.426911
4.860000	15.222000	0.997885	0.421223
4.870000	15.268000	0.993518	0.415464
4.880000	15.304000	0.988991	0.409637
4.890000	15.328000	0.984309	0.403747
4.900000	15.338000	0.979473	0.397796
4.910000	15.334000	0.974465	0.391790
4.920000	15.315000	0.969283	0.385732
4.930000	15.284000	0.963929	0.379626
4.940000	15.243000	0.958402	0.373475
4.950000	15.195000	0.952704	0.367284
4.960000	15.144000	0.946836	0.361057
4.970000	15.094000	0.940800	0.354796
4.980000	15.050000	0.934597	0.348507
4.990000	15.015000	0.928230	0.342193
5.000000	14.994000	0.921702	0.335858
5.010000	14.988000	0.915015	0.329504
5.020000	15.000000	0.908172	0.323136
5.030000	15.029000	0.901176	0.316758
5.040000	15.074000	0.894033	0.310373
5.050000	15.133000	0.886744	0.303984
5.060000	15.201000	0.879315	0.297596
5.070000	15.275000	0.871751	0.291210
5.080000	15.349000	0.864056	0.284832
5.090000	15.419000	0.856235	0.278464
5.100000	15.481000	0.848295	0.272109
5.110000	15.530000	0.840240	0.265772
5.120000	15.566000	0.832077	0.259454
5.130000	15.586000	0.823813	0.253160
5.140000	15.592000	0.815454	0.246893
5.150000	15.586000	0.807007	0.240655
5.160000	15.570000	0.798479	0.234450
5.170000	15.547000	0.789878	0.228281
5.180000	15.523000	0.781213	0.222152
5.190000	15.500000	0.772490	0.216064
5.200000	15.481000	0.763711	0.210020
5.210000	15.468000	0.754869	0.204021
5.220000	15.463000	0.745969	0.198071
5.230000	15.464000	0.737014	0.192172
5.240000	15.470000	0.728008	0.186326
5.250000	15.479000	0.718954	0.180538
5.260000	15.487000	0.709857	0.174809
5.270000	15.491000	0.700721	0.169142
5.280000	15.489000	0.691549	0.163540
5.290000	15.477000	0.682347	0.158005
5.300000	15.456000	0.673118	0.152538
5.310000	15.425000	0.663867	0.147143
5.320000	15.385000	0.654599	0.141822
5.330000	15.340000	0.645318	0.136576
5.340000	15.293000	0.636029	0.131407
5.350000	15.248000	0.626737	0.126318
