# Time (s), Wind Speed (m/s), Blade Displacement (m), Tower Displacement (m)
0.000000	16.214000	0.000000	0.000000
0.010000	16.245000	0.000421	0.000000
0.020000	16.278000	0.001680	0.000000
0.030000	16.312000	0.003769	0.000001
0.040000	16.345000	0.006680	0.000003
0.050000	16.378000	0.010404	0.000008
0.060000	16.411000	0.014930	0.000016
0.070000	16.447000	0.020248	0.000029
0.080000	16.486000	0.026344	0.000049
0.090000	16.530000	0.033207	0.000078
0.100000	16.580000	0.040824	0.000117
0.110000	16.637000	0.049182	0.000170
0.120000	16.701000	0.058267	0.000238
0.130000	16.768000	0.068064	0.000325
0.140000	16.837000	0.078561	0.000433
0.150000	16.902000	0.089742	0.000567
0.160000	16.958000	0.101595	0.000728
0.170000	17.002000	0.114103	0.000921
0.180000	17.028000	0.127241	0.001150
0.190000	17.033000	0.140986	0.001418
0.200000	17.015000	0.155313	0.001730
0.210000	16.976000	0.170194	0.002090
0.220000	16.918000	0.185600	0.002501
0.230000	16.846000	0.201503	0.002969
0.240000	16.765000	0.217870	0.003498
0.250000	16.685000	0.234669	0.004092
0.260000	16.613000	0.251866	0.004757
0.270000	16.558000	0.269426	0.005497
0.280000	16.526000	0.287311	0.006316
0.290000	16.523000	0.305487	0.007220
0.300000	16.551000	0.323934	0.008213
0.310000	16.612000	0.342632	0.009300
0.320000	16.703000	0.361564	0.010487
0.330000	16.822000	0.380712	0.011777
0.340000	16.961000	0.400060	0.013177
0.350000	17.114000	0.419591	0.014691
0.360000	17.274000	0.439290	0.016323
0.370000	17.432000	0.459141	0.018078
0.380000	17.584000	0.479132	0.019962
0.390000	17.723000	0.499246	0.021977
0.400000	17.844000	0.519473	0.024128
0.410000	17.947000	0.539799	0.026421
0.420000	18.028000	0.560212	0.028857
0.430000	18.088000	0.580700	0.031443
0.440000	18.127000	0.601254	0.034181
0.450000	18.146000	0.621865	0.037076
0.460000	18.144000	0.642515	0.040130
0.470000	18.121000	0.663165	0.043347
0.480000	18.078000	0.683778	0.046732
0.490000	18.013000	0.704317	0.050288
0.500000	17.926000	0.724747	0.054018
0.510000	17.817000	0.745033	0.057926
0.520000	17.687000	0.765143	0.062014
0.530000	17.538000	0.785042	0.066285
0.540000	17.373000	0.804701	0.070741
0.550000	17.198000	0.824090	0.075384
0.560000	17.019000	0.843178	0.080215
0.570000	16.845000	0.861939	0.085237
0.580000	16.684000	0.880346	0.090449
0.590000	16.544000	0.898372	0.095854
0.600000	16.434000	0.915994	0.101452
0.610000	16.359000	0.933187	0.107242
0.620000	16.323000	0.949930	0.113226
0.630000	16.327000	0.966200	0.119403
0.640000	16.369000	0.981977	0.125771
0.650000	16.443000	0.997243	0.132332
0.660000	16.542000	1.012010	0.139081
0.670000	16.657000	1.026309	0.146018
0.680000	16.778000	1.040141	0.153140
0.690000	16.892000	1.053508	0.160445
0.700000	16.993000	1.066414	0.167932
0.710000	17.071000	1.078860	0.175597
0.720000	17.124000	1.090848	0.183439
0.730000	17.148000	1.102381	0.191453
0.740000	17.145000	1.113463	0.199637
0.750000	17.120000	1.124096	0.207987
0.760000	17.078000	1.134282	0.216499
0.770000	17.027000	1.144026	0.225167
0.780000	16.974000	1.153331	0.233989
0.790000	16.928000	1.162199	0.242957
0.800000	16.892000	1.170635	0.252068
0.810000	16.870000	1.178643	0.261315
0.820000	16.862000	1.186226	0.270692
0.830000	16.868000	1.193388	0.280194
0.840000	16.881000	1.200135	0.289812
0.850000	16.897000	1.206469	0.299541
0.860000	16.910000	1.212396	0.309373
0.870000	16.912000	1.217920	0.319300
0.880000	16.899000	1.223046	0.329314
0.890000	16.866000	1.227779	0.339407
0.900000	16.813000	1.232125	0.349571
0.910000	16.742000	1.236089	0.359797
0.920000	16.655000	1.239681	0.370081
0.930000	16.559000	1.242908	0.380414
0.940000	16.461000	1.245779	0.390787
0.950000	16.368000	1.248302	0.401192
0.960000	16.288000	1.250487	0.411621
0.970000	16.226000	1.252345	0.422064
0.980000	16.185000	1.253888	0.432512
0.990000	16.169000	1.255128	0.442958
1.000000	16.174000	1.256079	0.453391
1.010000	16.198000	1.256756	0.463802
1.020000	16.235000	1.257175	0.474184
1.030000	16.279000	1.257352	0.484525
1.040000	16.324000	1.257305	0.494818
1.050000	16.365000	1.257053	0.505053
1.060000	16.396000	1.256614	0.515220
1.070000	16.417000	1.256011	0.525311
1.080000	16.427000	1.255263	0.535314
1.090000	16.429000	1.254395	0.545222
1.100000	16.427000	1.253429	0.555024
1.110000	16.429000	1.252382	0.564711
1.120000	16.438000	1.251253	0.574275
1.130000	16.463000	1.250062	0.583706
1.140000	16.507000	1.248834	0.592997
1.150000	16.572000	1.247591	0.602137
1.160000	16.658000	1.246356	0.611118
1.170000	16.762000	1.245151	0.619933
1.180000	16.878000	1.244000	0.628571
1.190000	16.999000	1.242923	0.637026
1.200000	17.114000	1.241943	0.645290
1.210000	17.214000	1.241080	0.653354
1.220000	17.290000	1.240357	0.661212
1.230000	17.336000	1.239794	0.668855
1.240000	17.345000	1.239411	0.676278
1.250000	17.317000	1.239224	0.683473
1.260000	17.252000	1.239231	0.690433
1.270000	17.156000	1.239427	0.697153
1.280000	17.035000	1.239807	0.703627
1.290000	16.898000	1.240364	0.709848
1.300000	16.756000	1.241093	0.715810
1.310000	16.617000	1.241988	0.721510
1.320000	16.490000	1.243043	0.726941
1.330000	16.381000	1.244250	0.732100
1.340000	16.294000	1.245602	0.736982
1.350000	16.229000	1.247093	0.741584
1.360000	16.185000	1.248715	0.745901
1.370000	16.157000	1.250460	0.749931
1.380000	16.139000	1.252320	0.753671
1.390000	16.124000	1.254299	0.757118
1.400000	16.105000	1.256405	0.760269
1.410000	16.075000	1.258631	0.763122
1.420000	16.031000	1.260974	0.765676
1.430000	15.970000	1.263424	0.767927
1.440000	15.892000	1.265975	0.769877
1.450000	15.799000	1.268618	0.771522
1.460000	15.696000	1.271342	0.772863
1.470000	15.586000	1.274136	0.773899
1.480000	15.478000	1.276988	0.774631
1.490000	15.375000	1.279884	0.775058
1.500000	15.283000	1.282811	0.775182
1.510000	15.206000	1.285753	0.775002
1.520000	15.146000	1.288693	0.774521
1.530000	15.101000	1.291629	0.773740
1.540000	15.071000	1.294555	0.772660
1.550000	15.052000	1.297462	0.771284
1.560000	15.039000	1.300339	0.769613
1.570000	15.029000	1.303177	0.767650
1.580000	15.018000	1.305965	0.765398
1.590000	15.001000	1.308694	0.762858
1.600000	14.978000	1.311354	0.760035
1.610000	14.948000	1.313935	0.756932
1.620000	14.911000	1.316427	0.753552
1.630000	14.870000	1.318821	0.749899
1.640000	14.829000	1.321107	0.745976
1.650000	14.790000	1.323276	0.741789
1.660000	14.759000	1.325319	0.737342
1.670000	14.737000	1.327226	0.732639
1.680000	14.727000	1.328989	0.727685
1.690000	14.730000	1.330597	0.722486
1.700000	14.747000	1.332043	0.717046
1.710000	14.774000	1.333316	0.711373
1.720000	14.811000	1.334409	0.705470
1.730000	14.854000	1.335311	0.699345
1.740000	14.900000	1.336018	0.693004
1.750000	14.946000	1.336533	0.686450
1.760000	14.988000	1.336852	0.679691
1.770000	15.026000	1.336972	0.672732
1.780000	15.059000	1.336889	0.665581
1.790000	15.086000	1.336600	0.658243
1.800000	15.108000	1.336099	0.650725
1.810000	15.126000	1.335382	0.643034
1.820000	15.142000	1.334444	0.635177
1.830000	15.157000	1.333280	0.627159
1.840000	15.172000	1.331886	0.618989
1.850000	15.187000	1.330255	0.610673
1.860000	15.201000	1.328382	0.602218
1.870000	15.214000	1.326260	0.593630
1.880000	15.222000	1.323885	0.584918
1.890000	15.225000	1.321248	0.576087
1.900000	15.221000	1.318345	0.567145
1.910000	15.207000	1.315168	0.558100
1.920000	15.183000	1.311709	0.548958
1.930000	15.149000	1.307963	0.539728
1.940000	15.106000	1.303921	0.530415
1.950000	15.056000	1.299575	0.521029
1.960000	15.000000	1.294918	0.511576
1.970000	14.943000	1.289950	0.502060
1.980000	14.888000	1.284664	0.492488
1.990000	14.837000	1.279051	0.482868
2.000000	14.792000	1.273101	0.473207
2.010000	14.756000	1.266806	0.463513
2.020000	14.727000	1.260159	0.453794
2.030000	14.706000	1.253155	0.444056
2.040000	14.691000	1.245786	0.434306
2.050000	14.679000	1.238048	0.424551
2.060000	14.666000	1.229938	0.414798
2.070000	14.651000	1.221451	0.405053
2.080000	14.629000	1.212586	0.395323
2.090000	14.599000	1.203341	0.385612
2.100000	14.560000	1.193714	0.375928
2.110000	14.511000	1.183707	0.366275
2.120000	14.454000	1.173320	0.356659
2.130000	14.391000	1.162554	0.347086
2.140000	14.325000	1.151411	0.337561
2.150000	14.258000	1.139896	0.328088
2.160000	14.195000	1.128012	0.318672
2.170000	14.137000	1.115764	0.309318
2.180000	14.088000	1.103157	0.300030
2.190000	14.049000	1.090197	0.290813
2.200000	14.020000	1.076893	0.281669
2.210000	14.001000	1.063252	0.272604
2.220000	13.991000	1.049283	0.263621
2.230000	13.989000	1.034997	0.254723
2.240000	13.991000	1.020405	0.245913
2.250000	13.997000	1.005519	0.237195
2.260000	14.003000	0.990346	0.228573
2.270000	14.010000	0.974897	0.220050
2.280000	14.014000	0.959180	0.211630
2.290000	14.017000	0.943207	0.203316
2.300000	14.017000	0.926989	0.195109
2.310000	14.014000	0.910536	0.187014
2.320000	14.010000	0.893860	0.179033
2.330000	14.003000	0.876974	0.171167
2.340000	13.994000	0.859890	0.163420
2.350000	13.982000	0.842621	0.155792
2.360000	13.968000	0.825180	0.148285
2.370000	13.949000	0.807582	0.140901
2.380000	13.926000	0.789840	0.133642
2.390000	13.899000	0.771971	0.126507
2.400000	13.867000	0.753988	0.119498
2.410000	13.832000	0.735907	0.112615
2.420000	13.797000	0.717745	0.105860
2.430000	13.763000	0.699519	0.099231
2.440000	13.735000	0.681244	0.092730
2.450000	13.717000	0.662940	0.086355
2.460000	13.714000	0.644623	0.080107
2.470000	13.729000	0.626312	0.073984
2.480000	13.766000	0.608025	0.067987
2.490000	13.827000	0.589782	0.062113
2.500000	13.913000	0.571603	0.056363
2.510000	14.021000	0.553521	0.050736
2.520000	14.149000	0.535572	0.045235
2.530000	14.291000	0.517783	0.039858
2.540000	14.439000	0.500180	0.034606
2.550000	14.587000	0.482785	0.029476
2.560000	14.725000	0.465623	0.024468
2.570000	14.846000	0.448714	0.019582
2.580000	14.944000	0.432077	0.014817
2.590000	15.012000	0.415731	0.010171
2.600000	15.049000	0.399693	0.005645
2.610000	15.054000	0.383979	0.001237
2.620000	15.029000	0.368602	-0.003054
2.630000	14.980000	0.353576	-0.007229
2.640000	14.912000	0.338911	-0.011288
2.650000	14.833000	0.324617	-0.015232
2.660000	14.751000	0.310704	-0.019062
2.670000	14.674000	0.297178	-0.022778
2.680000	14.609000	0.284045	-0.026383
2.690000	14.559000	0.271308	-0.029876
2.700000	14.529000	0.258972	-0.033259
2.710000	14.518000	0.247038	-0.036532
2.720000	14.526000	0.235505	-0.039696
2.730000	14.548000	0.224373	-0.042753
2.740000	14.581000	0.213638	-0.045702
2.750000	14.618000	0.203304	-0.048545
2.760000	14.655000	0.193402	-0.051280
2.770000	14.685000	0.183942	-0.053908
2.780000	14.707000	0.174929	-0.056429
2.790000	14.716000	0.166368	-0.058845
2.800000	14.713000	0.158265	-0.061157
2.810000	14.698000	0.150624	-0.063364
2.820000	14.674000	0.143449	-0.065469
2.830000	14.645000	0.136743	-0.067471
2.840000	14.614000	0.130509	-0.069370
2.850000	14.586000	0.124749	-0.071168
2.860000	14.565000	0.119464	-0.072864
2.870000	14.554000	0.114658	-0.074458
2.880000	14.556000	0.110329	-0.075950
2.890000	14.571000	0.106479	-0.077341
2.900000	14.599000	0.103107	-0.078630
2.910000	14.639000	0.100212	-0.079817
2.920000	14.689000	0.097794	-0.080901
2.930000	14.747000	0.095851	-0.081882
2.940000	14.811000	0.094380	-0.082760
2.950000	14.877000	0.093379	-0.083533
2.960000	14.944000	0.092844	-0.084202
2.970000	15.010000	0.092772	-0.084764
2.980000	15.074000	0.093159	-0.085219
2.990000	15.136000	0.094000	-0.085567
3.000000	15.196000	0.095317	-0.085807
3.010000	15.251000	0.097118	-0.085939
3.020000	15.303000	0.099398	-0.085963
3.030000	15.351000	0.102150	-0.085878
3.040000	15.392000	0.105367	-0.085683
3.050000	15.426000	0.109040	-0.085378
3.060000	15.450000	0.113162	-0.084961
3.070000	15.463000	0.117722	-0.084433
3.080000	15.463000	0.122712	-0.083791
3.090000	15.449000	0.128121	-0.083036
3.100000	15.421000	0.133936	-0.082165
3.110000	15.380000	0.140148	-0.081179
3.120000	15.328000	0.146742	-0.080077
3.130000	15.268000	0.153706	-0.078856
3.140000	15.204000	0.161025	-0.077517
3.150000	15.141000	0.168686	-0.076057
3.160000	15.083000	0.176673	-0.074477
3.170000	15.037000	0.184971	-0.072774
3.180000	15.005000	0.193562	-0.070947
3.190000	14.991000	0.202430	-0.068996
3.200000	14.995000	0.211557	-0.066919
3.210000	15.017000	0.220923	-0.064714
3.220000	15.055000	0.230512	-0.062380
3.230000	15.105000	0.240334	-0.059918
3.240000	15.161000	0.250393	-0.057327
3.250000	15.217000	0.260676	-0.054605
3.260000	15.268000	0.271169	-0.051753
3.270000	15.308000	0.281858	-0.048770
3.280000	15.332000	0.292729	-0.045654
3.290000	15.337000	0.303768	-0.042406
3.300000	15.322000	0.314963	-0.039024
3.310000	15.286000	0.326299	-0.035509
3.320000	15.234000	0.337763	-0.031861
3.330000	15.168000	0.349342	-0.028078
3.340000	15.095000	0.361022	-0.024161
3.350000	15.020000	0.372789	-0.020110
3.360000	14.949000	0.384632	-0.015925
3.370000	14.889000	0.396536	-0.011606
3.380000	14.844000	0.408489	-0.007153
3.390000	14.818000	0.420476	-0.002567
3.400000	14.811000	0.432487	0.002152
3.410000	14.825000	0.444506	0.007004
3.420000	14.857000	0.456523	0.011987
3.430000	14.903000	0.468523	0.017101
3.440000	14.960000	0.480494	0.022346
3.450000	15.022000	0.492424	0.027721
3.460000	15.084000	0.504299	0.033224
3.470000	15.140000	0.516108	0.038854
3.480000	15.186000	0.527859	0.044611
3.490000	15.218000	0.539577	0.050491
3.500000	15.233000	0.551252	0.056493
3.510000	15.231000	0.562868	0.062615
3.520000	15.211000	0.574416	0.068856
3.530000	15.175000	0.585883	0.075212
3.540000	15.123000	0.597258	0.081682
3.550000	15.060000	0.608533	0.088263
3.560000	14.989000	0.619698	0.094954
3.570000	14.914000	0.630745	0.101750
3.580000	14.839000	0.641667	0.108651
3.590000	14.768000	0.652456	0.115652
3.600000	14.705000	0.663107	0.122751
3.610000	14.655000	0.673615	0.129944
3.620000	14.619000	0.683975	0.137229
3.630000	14.602000	0.694182	0.144603
3.640000	14.604000	0.704236	0.152061
3.650000	14.627000	0.714132	0.159600
3.660000	14.671000	0.723870	0.167216
3.670000	14.735000	0.733449	0.174906
3.680000	14.817000	0.742869	0.182665
3.690000	14.914000	0.752130	0.190490
3.700000	15.022000	0.761234	0.198376
3.710000	15.137000	0.770184	0.206318
3.720000	15.254000	0.778982	0.214313
3.730000	15.367000	0.787633	0.222356
3.740000	15.471000	0.796158	0.230443
3.750000	15.562000	0.804590	0.238569
3.760000	15.635000	0.812932	0.246731
3.770000	15.689000	0.821185	0.254922
3.780000	15.720000	0.829352	0.263137
3.790000	15.730000	0.837433	0.271371
3.800000	15.718000	0.845430	0.279619
3.810000	15.687000	0.853344	0.287876
3.820000	15.640000	0.861174	0.296137
3.830000	15.580000	0.868921	0.304396
3.840000	15.511000	0.876585	0.312648
3.850000	15.438000	0.884165	0.320889
3.860000	15.363000	0.891659	0.329112
3.870000	15.289000	0.899067	0.337314
3.880000	15.218000	0.906388	0.345488
3.890000	15.151000	0.913618	0.353631
3.900000	15.090000	0.920755	0.361736
3.910000	15.033000	0.927798	0.369799
3.920000	14.981000	0.934743	0.377815
3.930000	14.932000	0.941586	0.385778
3.940000	14.888000	0.948324	0.393685
3.950000	14.847000	0.954953	0.401529
3.960000	14.811000	0.961469	0.409306
3.970000	14.780000	0.967866	0.417011
3.980000	14.755000	0.974141	0.424639
3.990000	14.739000	0.980287	0.432186
4.000000	14.732000	0.986298	0.439645
4.010000	14.736000	0.992169	0.447013
4.020000	14.751000	0.997913	0.454285
4.030000	14.776000	1.003566	0.461457
4.040000	14.810000	1.009135	0.468524
4.050000	14.851000	1.014620	0.475480
4.060000	14.896000	1.020025	0.482322
4.070000	14.939000	1.025352	0.489044
4.080000	14.978000	1.030602	0.495641
4.090000	15.007000	1.035776	0.502110
4.100000	15.024000	1.040876	0.508445
4.110000	15.024000	1.045901	0.514643
4.120000	15.005000	1.050853	0.520699
4.130000	14.968000	1.055731	0.526609
4.140000	14.913000	1.060535	0.532370
4.150000	14.842000	1.065264	0.537978
4.160000	14.759000	1.069917	0.543429
4.170000	14.669000	1.074492	0.548720
4.180000	14.575000	1.078987	0.553847
4.190000	14.482000	1.083401	0.558808
4.200000	14.396000	1.087731	0.563598
4.210000	14.319000	1.091973	0.568216
4.220000	14.254000	1.096126	0.572659
4.230000	14.203000	1.100185	0.576923
4.240000	14.166000	1.104146	0.581006
4.250000	14.142000	1.108005	0.584906
4.260000	14.131000	1.111757	0.588621
4.270000	14.130000	1.115399	0.592147
4.280000	14.136000	1.118923	0.595485
4.290000	14.149000	1.122325	0.598630
4.300000	14.165000	1.125599	0.601582
4.310000	14.183000	1.128739	0.604339
4.320000	14.202000	1.131737	0.606900
4.330000	14.221000	1.134598	0.609263
4.340000	14.239000	1.137352	0.611426
4.350000	14.255000	1.140005	0.613390
4.360000	14.268000	1.142556	0.615153
4.370000	14.277000	1.145006	0.616714
4.380000	14.279000	1.147353	0.618072
4.390000	14.274000	1.149595	0.619227
4.400000	14.257000	1.151730	0.620179
4.410000	14.226000	1.153753	0.620927
4.420000	14.180000	1.155661	0.621471
4.430000	14.115000	1.157448	0.621812
4.440000	14.033000	1.159108	0.621949
4.450000	13.932000	1.160633	0.621883
4.460000	13.816000	1.162016	0.621615
4.470000	13.689000	1.163247	0.621144
4.480000	13.554000	1.164317	0.620473
4.490000	13.420000	1.165216	0.619602
4.500000	13.293000	1.165931	0.618533
4.510000	13.181000	1.166451	0.617266
4.520000	13.091000	1.166759	0.615803
4.530000	13.030000	1.166835	0.614145
4.540000	13.001000	1.166681	0.612293
4.550000	13.008000	1.166302	0.610249
4.560000	13.051000	1.165705	0.608016
4.570000	13.127000	1.164896	0.605594
4.580000	13.232000	1.163881	0.602986
4.590000	13.358000	1.162667	0.600195
4.600000	13.499000	1.161260	0.597221
4.610000	13.643000	1.159666	0.594069
4.620000	13.783000	1.157891	0.590739
4.630000	13.910000	1.155943	0.587234
4.640000	14.014000	1.153828	0.583558
4.650000	14.092000	1.151553	0.579712
4.660000	14.139000	1.149125	0.575699
4.670000	14.154000	1.146549	0.571522
4.680000	14.138000	1.143834	0.567184
4.690000	14.094000	1.140987	0.562688
4.700000	14.027000	1.138013	0.558037
4.710000	13.943000	1.134919	0.553234
4.720000	13.851000	1.131671	0.548282
4.730000	13.756000	1.128250	0.543185
4.740000	13.667000	1.124650	0.537947
4.750000	13.589000	1.120864	0.532572
4.760000	13.528000	1.116887	0.527063
4.770000	13.486000	1.112718	0.521425
4.780000	13.467000	1.108353	0.515660
4.790000	13.471000	1.103791	0.509773
4.800000	13.496000	1.099031	0.503767
4.810000	13.540000	1.094076	0.497647
4.820000	13.600000	1.088927	0.491417
4.830000	13.671000	1.083588	0.485080
4.840000	13.747000	1.078063	0.478641
4.850000	13.824000	1.072357	0.472103
4.860000	13.897000	1.066476	0.465471
4.870000	13.960000	1.060430	0.458750
4.880000	14.010000	1.054227	0.451942
4.890000	14.043000	1.047876	0.445053
4.900000	14.057000	1.041378	0.438087
4.910000	14.050000	1.034725	0.431048
4.920000	14.025000	1.027915	0.423941
4.930000	13.982000	1.020946	0.416769
4.940000	13.926000	1.013816	0.409537
4.950000	13.859000	1.006527	0.402250
4.960000	13.789000	0.999078	0.394911
4.970000	13.720000	0.991469	0.387525
4.980000	13.659000	0.983702	0.380095
4.990000	13.612000	0.975779	0.372627
5.000000	13.582000	0.967701	0.365125
5.010000	13.575000	0.959473	0.357592
5.020000	13.591000	0.951097	0.350033
5.030000	13.631000	0.942577	0.342452
5.040000	13.693000	0.933918	0.334853
5.050000	13.773000	0.925125	0.327241
5.060000	13.867000	0.916204	0.319619
5.070000	13.969000	0.907160	0.311993
5.080000	14.071000	0.898000	0.304366
5.090000	14.167000	0.888732	0.296742
5.100000	14.252000	0.879364	0.289125
5.110000	14.320000	0.869903	0.281520
5.120000	14.369000	0.860359	0.273931
5.130000	14.397000	0.850741	0.266362
5.140000	14.405000	0.841059	0.258817
5.150000	14.396000	0.831318	0.251299
5.160000	14.374000	0.821522	0.243810
5.170000	14.344000	0.811674	0.236356
5.180000	14.310000	0.801777	0.228940
5.190000	14.278000	0.791836	0.221566
5.200000	14.252000	0.781852	0.214236
5.210000	14.234000	0.771829	0.206956
5.220000	14.226000	0.761772	0.199728
5.230000	14.228000	0.751682	0.192556
5.240000	14.236000	0.741563	0.185443
5.250000	14.248000	0.731420	0.178392
5.260000	14.260000	0.721254	0.171407
5.270000	14.266000	0.711070	0.164491
5.280000	14.262000	0.700871	0.157646
5.290000	14.246000	0.690659	0.150876
5.300000	14.217000	0.680439	0.144184
5.310000	14.174000	0.670214	0.137573
5.320000	14.119000	0.659988	0.131044
5.330000	14.057000	0.649763	0.124602
5.340000	13.992000	0.639543	0.118248
5.350000	13.930000	0.629331	0.111986
