# Time (s), Wind Speed (m/s), Blade Displacement (m), Tower Displacement (m)
0.000000	24.783000	0.000000	0.000000
0.010000	24.802000	0.000251	0.000000
0.020000	24.822000	0.001003	0.000000
0.030000	24.843000	0.002253	0.000001
0.040000	24.864000	0.003998	0.000002
0.050000	24.884000	0.006234	0.000005
0.060000	24.905000	0.008958	0.000010
0.070000	24.927000	0.012164	0.000018
0.080000	24.951000	0.015846	0.000030
0.090000	24.979000	0.019997	0.000047
0.100000	25.010000	0.024613	0.000070
0.110000	25.046000	0.029684	0.000102
0.120000	25.085000	0.035205	0.000143
0.130000	25.127000	0.041167	0.000195
0.140000	25.170000	0.047561	0.000261
0.150000	25.210000	0.054378	0.000341
0.160000	25.246000	0.061609	0.000439
0.170000	25.273000	0.069244	0.000556
0.180000	25.289000	0.077272	0.000694
0.190000	25.292000	0.085683	0.000856
0.200000	25.281000	0.094460	0.001045
0.210000	25.257000	0.103589	0.001263
0.220000	25.221000	0.113056	0.001512
0.230000	25.175000	0.122844	0.001796
0.240000	25.125000	0.132939	0.002117
0.250000	25.075000	0.143323	0.002479
0.260000	25.031000	0.153982	0.002883
0.270000	24.996000	0.164897	0.003333
0.280000	24.976000	0.176053	0.003831
0.290000	24.974000	0.187433	0.004382
0.300000	24.992000	0.199019	0.004988
0.310000	25.030000	0.210794	0.005652
0.320000	25.087000	0.222743	0.006377
0.330000	25.161000	0.234855	0.007165
0.340000	25.247000	0.247117	0.008021
0.350000	25.343000	0.259516	0.008947
0.360000	25.442000	0.272039	0.009947
0.370000	25.541000	0.284672	0.011023
0.380000	25.636000	0.297403	0.012178
0.390000	25.722000	0.310217	0.013415
0.400000	25.798000	0.323102	0.014738
0.410000	25.862000	0.336043	0.016149
0.420000	25.913000	0.349026	0.017650
0.430000	25.950000	0.362038	0.019244
0.440000	25.975000	0.375065	0.020934
0.450000	25.986000	0.388092	0.022722
0.460000	25.985000	0.401104	0.024610
0.470000	25.971000	0.414088	0.026601
0.480000	25.944000	0.427029	0.028698
0.490000	25.904000	0.439913	0.030902
0.500000	25.850000	0.452723	0.033214
0.510000	25.782000	0.465442	0.035636
0.520000	25.701000	0.478050	0.038170
0.530000	25.609000	0.490529	0.040819
0.540000	25.506000	0.502862	0.043583
0.550000	25.397000	0.515031	0.046465
0.560000	25.286000	0.527022	0.049466
0.570000	25.177000	0.538820	0.052586
0.580000	25.077000	0.550411	0.055826
0.590000	24.990000	0.561782	0.059188
0.600000	24.922000	0.572921	0.062672
0.610000	24.875000	0.583817	0.066278
0.620000	24.853000	0.594461	0.070005
0.630000	24.856000	0.604843	0.073854
0.640000	24.882000	0.614954	0.077825
0.650000	24.929000	0.624787	0.081917
0.660000	24.991000	0.634336	0.086129
0.670000	25.063000	0.643595	0.090460
0.680000	25.138000	0.652560	0.094910
0.690000	25.209000	0.661226	0.099476
0.700000	25.272000	0.669590	0.104157
0.710000	25.321000	0.677651	0.108951
0.720000	25.354000	0.685408	0.113857
0.730000	25.369000	0.692863	0.118872
0.740000	25.368000	0.700014	0.123993
0.750000	25.352000	0.706860	0.129218
0.760000	25.326000	0.713398	0.134546
0.770000	25.295000	0.719629	0.139972
0.780000	25.262000	0.725551	0.145496
0.790000	25.233000	0.731165	0.151112
0.800000	25.211000	0.736470	0.156819
0.810000	25.197000	0.741470	0.162612
0.820000	25.193000	0.746164	0.168489
0.830000	25.197000	0.750556	0.174445
0.840000	25.205000	0.754648	0.180477
0.850000	25.216000	0.758444	0.186581
0.860000	25.224000	0.761947	0.192751
0.870000	25.225000	0.765162	0.198984
0.880000	25.217000	0.768094	0.205275
0.890000	25.197000	0.770749	0.211618
0.900000	25.164000	0.773132	0.218010
0.910000	25.120000	0.775251	0.224444
0.920000	25.066000	0.777112	0.230915
0.930000	25.007000	0.778723	0.237418
0.940000	24.946000	0.780092	0.243947
0.950000	24.888000	0.781229	0.250495
0.960000	24.838000	0.782142	0.257056
0.970000	24.800000	0.782836	0.263626
0.980000	24.775000	0.783311	0.270200
0.990000	24.765000	0.783577	0.276771
1.000000	24.768000	0.783644	0.283335
1.010000	24.783000	0.783520	0.289885
1.020000	24.807000	0.783217	0.296414
1.030000	24.835000	0.782744	0.302918
1.040000	24.863000	0.782112	0.309390
1.050000	24.889000	0.781331	0.315824
1.060000	24.909000	0.780413	0.322214
1.070000	24.922000	0.779369	0.328554
1.080000	24.928000	0.778209	0.334838
1.090000	24.929000	0.776945	0.341060
1.100000	24.929000	0.775588	0.347214
1.110000	24.930000	0.774151	0.353294
1.120000	24.936000	0.772645	0.359294
1.130000	24.952000	0.771083	0.365208
1.140000	24.979000	0.769477	0.371031
1.150000	25.020000	0.767839	0.376755
1.160000	25.074000	0.766181	0.382376
1.170000	25.139000	0.764515	0.387888
1.180000	25.212000	0.762853	0.393286
1.190000	25.287000	0.761208	0.398565
1.200000	25.359000	0.759592	0.403719
1.210000	25.422000	0.758017	0.408742
1.220000	25.470000	0.756493	0.413630
1.230000	25.498000	0.755029	0.418377
1.240000	25.504000	0.753634	0.422980
1.250000	25.487000	0.752317	0.427433
1.260000	25.447000	0.751083	0.431732
1.270000	25.387000	0.749939	0.435873
1.280000	25.312000	0.748891	0.439852
1.290000	25.227000	0.747943	0.443665
1.300000	25.139000	0.747097	0.447308
1.310000	25.053000	0.746358	0.450778
1.320000	24.974000	0.745727	0.454071
1.330000	24.906000	0.745205	0.457185
1.340000	24.852000	0.744793	0.460117
1.350000	24.812000	0.744494	0.462864
1.360000	24.785000	0.744310	0.465424
1.370000	24.768000	0.744243	0.467793
1.380000	24.757000	0.744297	0.469970
1.390000	24.748000	0.744471	0.471953
1.400000	24.737000	0.744767	0.473740
1.410000	24.719000	0.745185	0.475328
1.420000	24.692000	0.745724	0.476717
1.430000	24.654000	0.746383	0.477906
1.440000	24.606000	0.747162	0.478894
1.450000	24.549000	0.748057	0.479680
1.460000	24.484000	0.749068	0.480263
1.470000	24.417000	0.750190	0.480645
1.480000	24.349000	0.751420	0.480824
1.490000	24.286000	0.752754	0.480801
1.500000	24.229000	0.754188	0.480577
1.510000	24.181000	0.755715	0.480152
1.520000	24.144000	0.757332	0.479528
1.530000	24.117000	0.759030	0.478706
1.540000	24.098000	0.760805	0.477687
1.550000	24.087000	0.762652	0.476473
1.560000	24.079000	0.764568	0.475065
1.570000	24.073000	0.766548	0.473465
1.580000	24.067000	0.768585	0.471675
1.590000	24.057000	0.770673	0.469698
1.600000	24.043000	0.772805	0.467535
1.610000	24.024000	0.774975	0.465189
1.620000	24.001000	0.777175	0.462663
1.630000	23.976000	0.779398	0.459960
1.640000	23.951000	0.781638	0.457083
1.650000	23.927000	0.783885	0.454035
1.660000	23.908000	0.786133	0.450819
1.670000	23.894000	0.788373	0.447441
1.680000	23.889000	0.790597	0.443902
1.690000	23.891000	0.792796	0.440207
1.700000	23.901000	0.794962	0.436361
1.710000	23.919000	0.797086	0.432368
1.720000	23.942000	0.799158	0.428231
1.730000	23.970000	0.801170	0.423956
1.740000	23.998000	0.803117	0.419547
1.750000	24.027000	0.804992	0.415008
1.760000	24.054000	0.806788	0.410344
1.770000	24.078000	0.808497	0.405560
1.780000	24.098000	0.810111	0.400660
1.790000	24.116000	0.811621	0.395651
1.800000	24.130000	0.813020	0.390535
1.810000	24.141000	0.814301	0.385320
1.820000	24.152000	0.815454	0.380009
1.830000	24.161000	0.816473	0.374608
1.840000	24.171000	0.817350	0.369122
1.850000	24.181000	0.818076	0.363557
1.860000	24.190000	0.818644	0.357916
1.870000	24.198000	0.819047	0.352207
1.880000	24.203000	0.819276	0.346433
1.890000	24.206000	0.819325	0.340601
1.900000	24.203000	0.819184	0.334715
1.910000	24.195000	0.818847	0.328782
1.920000	24.180000	0.818307	0.322805
1.930000	24.159000	0.817557	0.316791
1.940000	24.133000	0.816589	0.310743
1.950000	24.102000	0.815397	0.304668
1.960000	24.067000	0.813973	0.298570
1.970000	24.032000	0.812310	0.292456
1.980000	23.998000	0.810401	0.286329
1.990000	23.966000	0.808241	0.280196
2.000000	23.939000	0.805824	0.274061
2.010000	23.917000	0.803145	0.267929
2.020000	23.899000	0.800200	0.261804
2.030000	23.887000	0.796985	0.255692
2.040000	23.877000	0.793496	0.249596
2.050000	23.870000	0.789730	0.243522
2.060000	23.863000	0.785685	0.237472
2.070000	23.853000	0.781358	0.231452
2.080000	23.840000	0.776748	0.225465
2.090000	23.821000	0.771853	0.219515
2.100000	23.797000	0.766674	0.213607
2.110000	23.767000	0.761209	0.207742
2.120000	23.732000	0.755459	0.201927
2.130000	23.693000	0.749424	0.196162
2.140000	23.652000	0.743107	0.190453
2.150000	23.611000	0.736507	0.184800
2.160000	23.572000	0.729627	0.179206
2.170000	23.536000	0.722467	0.173675
2.180000	23.506000	0.715030	0.168210
2.190000	23.482000	0.707317	0.162814
2.200000	23.464000	0.699331	0.157490
2.210000	23.453000	0.691076	0.152241
2.220000	23.447000	0.682556	0.147068
2.230000	23.445000	0.673775	0.141975
2.240000	23.447000	0.664739	0.136963
2.250000	23.451000	0.655454	0.132035
2.260000	23.455000	0.645925	0.127191
2.270000	23.460000	0.636160	0.122433
2.280000	23.463000	0.626166	0.117764
2.290000	23.465000	0.615951	0.113183
2.300000	23.465000	0.605524	0.108692
2.310000	23.464000	0.594893	0.104291
2.320000	23.461000	0.584069	0.099982
2.330000	23.457000	0.573061	0.095764
2.340000	23.452000	0.561881	0.091637
2.350000	23.445000	0.550540	0.087602
2.360000	23.436000	0.539050	0.083659
2.370000	23.424000	0.527423	0.079806
2.380000	23.410000	0.515672	0.076043
2.390000	23.393000	0.503812	0.072370
2.400000	23.374000	0.491856	0.068786
2.410000	23.352000	0.479819	0.065288
2.420000	23.330000	0.467707	0.061878
2.430000	23.309000	0.455520	0.058556
2.440000	23.292000	0.443271	0.055321
2.450000	23.281000	0.430976	0.052172
2.460000	23.279000	0.418649	0.049109
2.470000	23.289000	0.406306	0.046131
2.480000	23.312000	0.393961	0.043236
2.490000	23.350000	0.381629	0.040424
2.500000	23.404000	0.369325	0.037693
2.510000	23.472000	0.357063	0.035041
2.520000	23.551000	0.344857	0.032469
2.530000	23.640000	0.332722	0.029974
2.540000	23.733000	0.320672	0.027556
2.550000	23.825000	0.308723	0.025212
2.560000	23.911000	0.296887	0.022941
2.570000	23.987000	0.285180	0.020742
2.580000	24.047000	0.273615	0.018613
2.590000	24.090000	0.262206	0.016552
2.600000	24.113000	0.250968	0.014558
2.610000	24.116000	0.239915	0.012628
2.620000	24.101000	0.229059	0.010762
2.630000	24.071000	0.218416	0.008956
2.640000	24.029000	0.207999	0.007210
2.650000	23.980000	0.197822	0.005520
2.660000	23.929000	0.187898	0.003886
2.670000	23.881000	0.178241	0.002304
2.680000	23.840000	0.168864	0.000773
2.690000	23.809000	0.159779	-0.000710
2.700000	23.791000	0.150976	-0.002142
2.710000	23.784000	0.142460	-0.003526
2.720000	23.789000	0.134241	-0.004861
2.730000	23.803000	0.126328	-0.006151
2.740000	23.824000	0.118729	-0.007397
2.750000	23.847000	0.111451	-0.008600
2.760000	23.870000	0.104502	-0.009761
2.770000	23.889000	0.097890	-0.010881
2.780000	23.903000	0.091620	-0.011962
2.790000	23.909000	0.085698	-0.013004
2.800000	23.907000	0.080129	-0.014009
2.810000	23.898000	0.074919	-0.014977
2.820000	23.883000	0.070072	-0.015909
2.830000	23.865000	0.065591	-0.016806
2.840000	23.846000	0.061479	-0.017667
2.850000	23.828000	0.057740	-0.018495
2.860000	23.815000	0.054376	-0.019288
2.870000	23.809000	0.051389	-0.020047
2.880000	23.810000	0.048779	-0.020772
2.890000	23.819000	0.046548	-0.021464
2.900000	23.837000	0.044696	-0.022121
2.910000	23.862000	0.043223	-0.022745
2.920000	23.894000	0.042128	-0.023335
2.930000	23.930000	0.041409	-0.023890
2.940000	23.970000	0.041065	-0.024410
2.950000	24.011000	0.041097	-0.024895
2.960000	24.053000	0.041506	-0.025345
2.970000	24.094000	0.042292	-0.025758
2.980000	24.135000	0.043454	-0.026134
2.990000	24.173000	0.044989	-0.026473
3.000000	24.210000	0.046897	-0.026774
3.010000	24.245000	0.049173	-0.027037
3.020000	24.278000	0.051814	-0.027259
3.030000	24.308000	0.054816	-0.027441
3.040000	24.333000	0.058173	-0.027581
3.050000	24.355000	0.061882	-0.027677
3.060000	24.370000	0.065935	-0.027730
3.070000	24.378000	0.070325	-0.027737
3.080000	24.378000	0.075046	-0.027697
3.090000	24.370000	0.080089	-0.027609
3.100000	24.353000	0.085446	-0.027471
3.110000	24.327000	0.091108	-0.027281
3.120000	24.295000	0.097064	-0.027038
3.130000	24.257000	0.103304	-0.026739
3.140000	24.218000	0.109818	-0.026384
3.150000	24.179000	0.116593	-0.025969
3.160000	24.143000	0.123618	-0.025494
3.170000	24.114000	0.130881	-0.024958
3.180000	24.095000	0.138372	-0.024358
3.190000	24.086000	0.146080	-0.023692
3.200000	24.089000	0.153996	-0.022959
3.210000	24.103000	0.162108	-0.022157
3.220000	24.127000	0.170406	-0.021284
3.230000	24.158000	0.178880	-0.020338
3.240000	24.193000	0.187518	-0.019318
3.250000	24.228000	0.196309	-0.018221
3.260000	24.260000	0.205244	-0.017047
3.270000	24.285000	0.214312	-0.015792
3.280000	24.301000	0.223501	-0.014457
3.290000	24.304000	0.232800	-0.013039
3.300000	24.294000	0.242200	-0.011536
3.310000	24.273000	0.251688	-0.009947
3.320000	24.240000	0.261254	-0.008271
3.330000	24.199000	0.270887	-0.006505
3.340000	24.154000	0.280576	-0.004649
3.350000	24.107000	0.290309	-0.002701
3.360000	24.064000	0.300072	-0.000661
3.370000	24.026000	0.309851	0.001472
3.380000	23.999000	0.319636	0.003700
3.390000	23.982000	0.329414	0.006024
3.400000	23.978000	0.339175	0.008445
3.410000	23.987000	0.348909	0.010965
3.420000	24.007000	0.358605	0.013583
3.430000	24.036000	0.368253	0.016301
3.440000	24.072000	0.377845	0.019120
3.450000	24.111000	0.387370	0.022039
3.460000	24.149000	0.396822	0.025060
3.470000	24.185000	0.406190	0.028182
3.480000	24.213000	0.415468	0.031405
3.490000	24.234000	0.424648	0.034730
3.500000	24.244000	0.433722	0.038156
3.510000	24.243000	0.442684	0.041682
3.520000	24.230000	0.451527	0.045309
3.530000	24.208000	0.460246	0.049035
3.540000	24.176000	0.468834	0.052860
3.550000	24.137000	0.477286	0.056783
3.560000	24.093000	0.485597	0.060802
3.570000	24.046000	0.493763	0.064917
3.580000	23.999000	0.501778	0.069126
3.590000	23.955000	0.509641	0.073428
3.600000	23.917000	0.517338	0.077821
3.610000	23.885000	0.524862	0.082302
3.620000	23.863000	0.532209	0.086871
3.630000	23.853000	0.539377	0.091525
3.640000	23.854000	0.546362	0.096263
3.650000	23.869000	0.553162	0.101084
3.660000	23.897000	0.559777	0.105985
3.670000	23.937000	0.566206	0.110963
3.680000	23.988000	0.572446	0.116018
3.690000	24.049000	0.578499	0.121146
3.700000	24.116000	0.584365	0.126344
3.710000	24.188000	0.590044	0.131610
3.720000	24.261000	0.595537	0.136941
3.730000	24.332000	0.600847	0.142334
3.740000	24.397000	0.605975	0.147786
3.750000	24.454000	0.610924	0.153293
3.760000	24.500000	0.615696	0.158852
3.770000	24.533000	0.620296	0.164459
3.780000	24.553000	0.624727	0.170111
3.790000	24.559000	0.628994	0.175803
3.800000	24.552000	0.633101	0.181532
3.810000	24.533000	0.637054	0.187293
3.820000	24.504000	0.640858	0.193081
3.830000	24.467000	0.644520	0.198893
3.840000	24.424000	0.648046	0.204724
3.850000	24.379000	0.651443	0.210568
3.860000	24.332000	0.654719	0.216421
3.870000	24.286000	0.657868	0.222280
3.880000	24.243000	0.660881	0.228142
3.890000	24.201000	0.663762	0.234002
3.900000	24.163000	0.666514	0.239856
3.910000	24.128000	0.669141	0.245699
3.920000	24.096000	0.671647	0.251527
3.930000	24.066000	0.674035	0.257335
3.940000	24.039000	0.676311	0.263119
3.950000	24.014000	0.678478	0.268875
3.960000	23.991000	0.680541	0.274597
3.970000	23.972000	0.682504	0.280281
3.980000	23.957000	0.684374	0.285924
3.990000	23.947000	0.686153	0.291519
4.000000	23.943000	0.687849	0.297064
4.010000	23.946000	0.689465	0.302554
4.020000	23.956000	0.691009	0.307983
4.030000	23.972000	0.692484	0.313348
4.040000	23.993000	0.693898	0.318645
4.050000	24.019000	0.695256	0.323868
4.060000	24.047000	0.696564	0.329014
4.070000	24.075000	0.697829	0.334079
4.080000	24.099000	0.699057	0.339057
4.090000	24.118000	0.700255	0.343945
4.100000	24.128000	0.701430	0.348738
4.110000	24.128000	0.702588	0.353432
4.120000	24.117000	0.703735	0.358023
4.130000	24.094000	0.704871	0.362510
4.140000	24.060000	0.705999	0.366887
4.150000	24.017000	0.707123	0.371152
4.160000	23.965000	0.708246	0.375300
4.170000	23.909000	0.709370	0.379328
4.180000	23.851000	0.710499	0.383232
4.190000	23.794000	0.711636	0.387009
4.200000	23.740000	0.712782	0.390657
4.210000	23.692000	0.713940	0.394171
4.220000	23.652000	0.715112	0.397550
4.230000	23.621000	0.716300	0.400790
4.240000	23.598000	0.717505	0.403889
4.250000	23.584000	0.718730	0.406845
4.260000	23.577000	0.719974	0.409655
4.270000	23.577000	0.721241	0.412318
4.280000	23.581000	0.722530	0.414831
4.290000	23.589000	0.723842	0.417193
4.300000	23.599000	0.725178	0.419402
4.310000	23.611000	0.726539	0.421457
4.320000	23.623000	0.727924	0.423357
4.330000	23.635000	0.729334	0.425099
4.340000	23.647000	0.730769	0.426684
4.350000	23.657000	0.732233	0.428110
4.360000	23.666000	0.733729	0.429377
4.370000	23.671000	0.735255	0.430483
4.380000	23.673000	0.736810	0.431428
4.390000	23.670000	0.738391	0.432211
4.400000	23.660000	0.739998	0.432833
4.410000	23.641000	0.741627	0.433292
4.420000	23.612000	0.743275	0.433590
4.430000	23.573000	0.744940	0.433726
4.440000	23.522000	0.746617	0.433700
4.450000	23.459000	0.748303	0.433513
4.460000	23.387000	0.749992	0.433167
4.470000	23.308000	0.751681	0.432661
4.480000	23.225000	0.753365	0.431996
4.490000	23.141000	0.755036	0.431175
4.500000	23.063000	0.756691	0.430198
4.510000	22.993000	0.758322	0.429066
4.520000	22.937000	0.759922	0.427782
4.530000	22.899000	0.761485	0.426348
4.540000	22.882000	0.763003	0.424765
4.550000	22.886000	0.764469	0.423035
4.560000	22.913000	0.765883	0.421160
4.570000	22.961000	0.767245	0.419142
4.580000	23.026000	0.768552	0.416984
4.590000	23.105000	0.769802	0.414687
4.600000	23.193000	0.770993	0.412254
4.610000	23.284000	0.772121	0.409688
4.620000	23.371000	0.773182	0.406991
4.630000	23.450000	0.774175	0.404166
4.640000	23.516000	0.775093	0.401217
4.650000	23.564000	0.775935	0.398145
4.660000	23.594000	0.776695	0.394955
4.670000	23.603000	0.777369	0.391648
4.680000	23.593000	0.777953	0.388229
4.690000	23.566000	0.778441	0.384700
4.700000	23.525000	0.778829	0.381065
4.710000	23.473000	0.779111	0.377327
4.720000	23.415000	0.779282	0.373489
4.730000	23.357000	0.779335	0.369556
4.740000	23.301000	0.779266	0.365530
4.750000	23.253000	0.779067	0.361416
4.760000	23.215000	0.778732	0.357217
4.770000	23.189000	0.778254	0.352937
4.780000	23.178000	0.777627	0.348581
4.790000	23.180000	0.776848	0.344150
4.800000	23.196000	0.775914	0.339648
4.810000	23.224000	0.774820	0.335080
4.820000	23.261000	0.773562	0.330450
4.830000	23.305000	0.772138	0.325760
4.840000	23.353000	0.770542	0.321017
4.850000	23.402000	0.768773	0.316222
4.860000	23.447000	0.766827	0.311381
4.870000	23.487000	0.764700	0.306497
4.880000	23.518000	0.762391	0.301573
4.890000	23.539000	0.759897	0.296614
4.900000	23.547000	0.757215	0.291622
4.910000	23.544000	0.754343	0.286603
4.920000	23.528000	0.751279	0.281559
4.930000	23.502000	0.748021	0.276493
4.940000	23.466000	0.744568	0.271410
4.950000	23.425000	0.740918	0.266313
4.960000	23.382000	0.737070	0.261204
4.970000	23.339000	0.733022	0.256089
4.980000	23.301000	0.728775	0.250969
4.990000	23.272000	0.724327	0.245848
5.000000	23.254000	0.719677	0.240729
5.010000	23.249000	0.714826	0.235616
5.020000	23.259000	0.709774	0.230512
5.030000	23.284000	0.704524	0.225417
5.040000	23.323000	0.699081	0.220336
5.050000	23.373000	0.693444	0.215272
5.060000	23.432000	0.687618	0.210228
5.070000	23.495000	0.681604	0.205207
5.080000	23.559000	0.675406	0.200211
5.090000	23.620000	0.669026	0.195245
5.100000	23.673000	0.662468	0.190309
5.110000	23.715000	0.655735	0.185408
5.120000	23.746000	0.648830	0.180543
5.130000	23.764000	0.641759	0.175717
5.140000	23.769000	0.634525	0.170931
5.150000	23.764000	0.627132	0.166189
5.160000	23.750000	0.619586	0.161492
5.170000	23.731000	0.611890	0.156841
5.180000	23.710000	0.604051	0.152240
5.190000	23.690000	0.596073	0.147688
5.200000	23.674000	0.587962	0.143188
5.210000	23.663000	0.579724	0.138742
5.220000	23.659000	0.571365	0.134350
5.230000	23.660000	0.562891	0.130014
5.240000	23.665000	0.554308	0.125734
5.250000	23.673000	0.545624	0.121512
5.260000	23.680000	0.536845	0.117349
5.270000	23.684000	0.527978	0.113244
5.280000	23.682000	0.519031	0.109200
5.290000	23.673000	0.510010	0.105216
5.300000	23.654000	0.500917	0.101294
5.310000	23.628000	0.491760	0.097435
5.320000	23.594000	0.482544	0.093639
5.330000	23.555000	0.473278	0.089908
5.340000	23.515000	0.463969	0.086242
5.350000	23.477000	0.454625	0.082641
