# Time (s), Wind Speed (m/s), Blade Displacement (m), Tower Displacement (m)
0.000000	7.236000	0.000000	0.000000
0.010000	7.243000	0.000277	0.000000
0.020000	7.251000	0.001103	0.000000
0.030000	7.259000	0.002470	0.000001
0.040000	7.267000	0.004368	0.000002
0.050000	7.275000	0.006788	0.000005
0.060000	7.283000	0.009720	0.000011
0.070000	7.292000	0.013153	0.000019
0.080000	7.301000	0.017076	0.000032
0.090000	7.312000	0.021479	0.000051
0.100000	7.324000	0.026349	0.000076
0.110000	7.338000	0.031674	0.000110
0.120000	7.353000	0.037444	0.000155
0.130000	7.369000	0.043644	0.000211
0.140000	7.386000	0.050264	0.000281
0.150000	7.402000	0.057289	0.000366
0.160000	7.415000	0.064708	0.000470
0.170000	7.426000	0.072508	0.000594
0.180000	7.432000	0.080673	0.000741
0.190000	7.433000	0.089186	0.000912
0.200000	7.429000	0.098030	0.001111
0.210000	7.419000	0.107188	0.001340
0.220000	7.405000	0.116642	0.001602
0.230000	7.388000	0.126374	0.001900
0.240000	7.368000	0.136366	0.002235
0.250000	7.349000	0.146599	0.002612
0.260000	7.332000	0.157054	0.003032
0.270000	7.318000	0.167711	0.003499
0.280000	7.310000	0.178550	0.004015
0.290000	7.310000	0.189553	0.004585
0.300000	7.316000	0.200703	0.005209
0.310000	7.331000	0.211986	0.005891
0.320000	7.353000	0.223389	0.006635
0.330000	7.382000	0.234899	0.007442
0.340000	7.415000	0.246504	0.008317
0.350000	7.452000	0.258190	0.009262
0.360000	7.491000	0.269945	0.010279
0.370000	7.529000	0.281758	0.011372
0.380000	7.566000	0.293617	0.012543
0.390000	7.599000	0.305511	0.013795
0.400000	7.628000	0.317428	0.015130
0.410000	7.653000	0.329359	0.016550
0.420000	7.673000	0.341292	0.018058
0.430000	7.687000	0.353219	0.019656
0.440000	7.697000	0.365128	0.021347
0.450000	7.701000	0.377012	0.023132
0.460000	7.700000	0.388863	0.025013
0.470000	7.695000	0.400665	0.026992
0.480000	7.684000	0.412400	0.029072
0.490000	7.669000	0.424049	0.031253
0.500000	7.648000	0.435596	0.033539
0.510000	7.621000	0.447025	0.035930
0.520000	7.590000	0.458320	0.038428
0.530000	7.554000	0.469466	0.041034
0.540000	7.514000	0.480450	0.043750
0.550000	7.471000	0.491257	0.046576
0.560000	7.428000	0.501877	0.049514
0.570000	7.386000	0.512296	0.052563
0.580000	7.347000	0.522505	0.055724
0.590000	7.313000	0.532493	0.058997
0.600000	7.286000	0.542250	0.062383
0.610000	7.268000	0.551768	0.065881
0.620000	7.259000	0.561040	0.069491
0.630000	7.260000	0.570057	0.073213
0.640000	7.270000	0.578815	0.077045
0.650000	7.288000	0.587307	0.080987
0.660000	7.312000	0.595528	0.085038
0.670000	7.340000	0.603485	0.089196
0.680000	7.369000	0.611185	0.093460
0.690000	7.396000	0.618632	0.097828
0.700000	7.420000	0.625825	0.102300
0.710000	7.439000	0.632768	0.106872
0.720000	7.452000	0.639462	0.111545
0.730000	7.457000	0.645910	0.116314
0.740000	7.457000	0.652113	0.121179
0.750000	7.451000	0.658075	0.126137
0.760000	7.440000	0.663799	0.131185
0.770000	7.428000	0.669287	0.136322
0.780000	7.415000	0.674542	0.141543
0.790000	7.404000	0.679569	0.146846
0.800000	7.395000	0.684369	0.152228
0.810000	7.390000	0.688948	0.157685
0.820000	7.388000	0.693308	0.163214
0.830000	7.389000	0.697455	0.168811
0.840000	7.392000	0.701391	0.174472
0.850000	7.396000	0.705122	0.180194
0.860000	7.399000	0.708652	0.185972
0.870000	7.399000	0.711986	0.191801
0.880000	7.396000	0.715128	0.197677
0.890000	7.388000	0.718084	0.203595
0.900000	7.375000	0.720859	0.209551
0.910000	7.358000	0.723459	0.215539
0.920000	7.337000	0.725888	0.221555
0.930000	7.313000	0.728151	0.227593
0.940000	7.289000	0.730249	0.233651
0.950000	7.267000	0.732190	0.239723
0.960000	7.247000	0.733980	0.245806
0.970000	7.232000	0.735626	0.251893
0.980000	7.222000	0.737135	0.257980
0.990000	7.218000	0.738515	0.264062
1.000000	7.219000	0.739773	0.270133
1.010000	7.225000	0.740917	0.276189
1.020000	7.234000	0.741956	0.282224
1.030000	7.245000	0.742896	0.288234
1.040000	7.255000	0.743748	0.294214
1.050000	7.265000	0.744520	0.300157
1.060000	7.273000	0.745220	0.306060
1.070000	7.277000	0.745857	0.311917
1.080000	7.280000	0.746442	0.317723
1.090000	7.280000	0.746984	0.323473
1.100000	7.280000	0.747492	0.329161
1.110000	7.280000	0.747976	0.334784
1.120000	7.282000	0.748447	0.340334
1.130000	7.288000	0.748916	0.345808
1.140000	7.298000	0.749392	0.351201
1.150000	7.314000	0.749878	0.356508
1.160000	7.335000	0.750383	0.361725
1.170000	7.360000	0.750918	0.366848
1.180000	7.388000	0.751492	0.371871
1.190000	7.417000	0.752113	0.376791
1.200000	7.444000	0.752790	0.381602
1.210000	7.468000	0.753528	0.386302
1.220000	7.487000	0.754335	0.390885
1.230000	7.497000	0.755214	0.395347
1.240000	7.500000	0.756171	0.399686
1.250000	7.493000	0.757208	0.403897
1.260000	7.477000	0.758328	0.407978
1.270000	7.453000	0.759533	0.411924
1.280000	7.424000	0.760822	0.415733
1.290000	7.391000	0.762196	0.419401
1.300000	7.356000	0.763653	0.422926
1.310000	7.323000	0.765192	0.426306
1.320000	7.292000	0.766810	0.429537
1.330000	7.265000	0.768502	0.432617
1.340000	7.244000	0.770264	0.435545
1.350000	7.228000	0.772093	0.438318
1.360000	7.218000	0.773989	0.440934
1.370000	7.211000	0.775951	0.443391
1.380000	7.206000	0.777976	0.445689
1.390000	7.202000	0.780061	0.447824
1.400000	7.198000	0.782205	0.449797
1.410000	7.190000	0.784402	0.451605
1.420000	7.179000	0.786650	0.453248
1.430000	7.165000	0.788945	0.454725
1.440000	7.146000	0.791283	0.456035
1.450000	7.123000	0.793660	0.457177
1.460000	7.098000	0.796070	0.458153
1.470000	7.071000	0.798508	0.458960
1.480000	7.045000	0.800970	0.459600
1.490000	7.020000	0.803449	0.460072
1.500000	6.998000	0.805939	0.460378
1.510000	6.979000	0.808435	0.460517
1.520000	6.964000	0.810930	0.460490
1.530000	6.953000	0.813417	0.460299
1.540000	6.946000	0.815888	0.459945
1.550000	6.941000	0.818337	0.459428
1.560000	6.938000	0.820759	0.458751
1.570000	6.935000	0.823155	0.457914
1.580000	6.932000	0.825519	0.456919
1.590000	6.928000	0.827845	0.455766
1.600000	6.922000	0.830129	0.454459
1.610000	6.915000	0.832364	0.452999
1.620000	6.906000	0.834546	0.451387
1.630000	6.896000	0.836669	0.449626
1.640000	6.885000	0.838727	0.447719
1.650000	6.876000	0.840717	0.445666
1.660000	6.868000	0.842632	0.443472
1.670000	6.863000	0.844468	0.441138
1.680000	6.860000	0.846221	0.438666
1.690000	6.861000	0.847884	0.436061
1.700000	6.865000	0.849454	0.433324
1.710000	6.871000	0.850926	0.430459
1.720000	6.880000	0.852295	0.427469
1.730000	6.890000	0.853558	0.424357
1.740000	6.901000	0.854708	0.421126
1.750000	6.912000	0.855743	0.417780
1.760000	6.922000	0.856658	0.414323
1.770000	6.931000	0.857448	0.410758
1.780000	6.939000	0.858113	0.407088
1.790000	6.945000	0.858653	0.403316
1.800000	6.951000	0.859065	0.399445
1.810000	6.955000	0.859344	0.395481
1.820000	6.959000	0.859488	0.391426
1.830000	6.962000	0.859493	0.387284
1.840000	6.966000	0.859357	0.383058
1.850000	6.969000	0.859076	0.378754
1.860000	6.973000	0.858647	0.374374
1.870000	6.975000	0.858066	0.369922
1.880000	6.977000	0.857332	0.365402
1.890000	6.978000	0.856441	0.360819
1.900000	6.977000	0.855391	0.356174
1.910000	6.973000	0.854177	0.351474
1.920000	6.967000	0.852799	0.346721
1.930000	6.959000	0.851252	0.341919
1.940000	6.948000	0.849534	0.337072
1.950000	6.936000	0.847643	0.332184
1.960000	6.923000	0.845575	0.327258
1.970000	6.909000	0.843329	0.322299
1.980000	6.895000	0.840902	0.317311
1.990000	6.883000	0.838292	0.312297
2.000000	6.872000	0.835502	0.307259
2.010000	6.863000	0.832532	0.302201
2.020000	6.856000	0.829378	0.297127
2.030000	6.851000	0.826039	0.292040
2.040000	6.847000	0.822511	0.286945
2.050000	6.844000	0.818795	0.281846
2.060000	6.840000	0.814887	0.276746
2.070000	6.837000	0.810788	0.271649
2.080000	6.831000	0.806496	0.266558
2.090000	6.824000	0.802011	0.261478
2.100000	6.814000	0.797333	0.256410
2.110000	6.802000	0.792463	0.251359
2.120000	6.788000	0.787402	0.246328
2.130000	6.773000	0.782151	0.241319
2.140000	6.757000	0.776712	0.236336
2.150000	6.741000	0.771086	0.231381
2.160000	6.725000	0.765276	0.226457
2.170000	6.711000	0.759284	0.221566
2.180000	6.699000	0.753114	0.216712
2.190000	6.689000	0.746769	0.211896
2.200000	6.682000	0.740253	0.207120
2.210000	6.678000	0.733570	0.202387
2.220000	6.675000	0.726725	0.197698
2.230000	6.674000	0.719723	0.193057
2.240000	6.675000	0.712569	0.188464
2.250000	6.676000	0.705268	0.183921
2.260000	6.678000	0.697828	0.179430
2.270000	6.679000	0.690253	0.174992
2.280000	6.680000	0.682551	0.170609
2.290000	6.681000	0.674730	0.166282
2.300000	6.680000	0.666796	0.162013
2.310000	6.680000	0.658756	0.157802
2.320000	6.679000	0.650617	0.153653
2.330000	6.677000	0.642385	0.149566
2.340000	6.674000	0.634067	0.145542
2.350000	6.672000	0.625669	0.141582
2.360000	6.668000	0.617199	0.137689
2.370000	6.663000	0.608664	0.133861
2.380000	6.658000	0.600070	0.130102
2.390000	6.651000	0.591425	0.126411
2.400000	6.643000	0.582737	0.122788
2.410000	6.635000	0.574014	0.119236
2.420000	6.626000	0.565262	0.115754
2.430000	6.618000	0.556489	0.112343
2.440000	6.611000	0.547705	0.109003
2.450000	6.607000	0.538916	0.105735
2.460000	6.606000	0.530131	0.102539
2.470000	6.609000	0.521358	0.099416
2.480000	6.618000	0.512606	0.096364
2.490000	6.633000	0.503884	0.093384
2.500000	6.653000	0.495200	0.090477
2.510000	6.679000	0.486563	0.087642
2.520000	6.710000	0.477982	0.084878
2.530000	6.744000	0.469466	0.082186
2.540000	6.780000	0.461025	0.079565
2.550000	6.816000	0.452668	0.077015
2.560000	6.849000	0.444403	0.074535
2.570000	6.878000	0.436242	0.072124
2.580000	6.902000	0.428194	0.069781
2.590000	6.918000	0.420269	0.067507
2.600000	6.927000	0.412476	0.065299
2.610000	6.928000	0.404823	0.063161
2.620000	6.922000	0.397314	0.061092
2.630000	6.910000	0.389953	0.059092
2.640000	6.894000	0.382745	0.057159
2.650000	6.874000	0.375693	0.055293
2.660000	6.855000	0.368802	0.053494
2.670000	6.836000	0.362074	0.051761
2.680000	6.820000	0.355513	0.050092
2.690000	6.808000	0.349124	0.048488
2.700000	6.800000	0.342908	0.046948
2.710000	6.798000	0.336869	0.045471
2.720000	6.800000	0.331010	0.044056
2.730000	6.805000	0.325334	0.042703
2.740000	6.813000	0.319843	0.041412
2.750000	6.822000	0.314540	0.040182
2.760000	6.830000	0.309428	0.039012
2.770000	6.838000	0.304507	0.037902
2.780000	6.843000	0.299781	0.036851
2.790000	6.845000	0.295252	0.035860
2.800000	6.844000	0.290920	0.034926
2.810000	6.840000	0.286789	0.034051
2.820000	6.835000	0.282859	0.033233
2.830000	6.827000	0.279131	0.032473
2.840000	6.820000	0.275607	0.031769
2.850000	6.813000	0.272288	0.031121
2.860000	6.808000	0.269174	0.030530
2.870000	6.805000	0.266268	0.029994
2.880000	6.805000	0.263568	0.029514
2.890000	6.809000	0.261076	0.029089
2.900000	6.816000	0.258792	0.028718
2.910000	6.825000	0.256715	0.028402
2.920000	6.837000	0.254847	0.028140
2.930000	6.851000	0.253187	0.027933
2.940000	6.867000	0.251736	0.027778
2.950000	6.883000	0.250498	0.027678
2.960000	6.899000	0.249472	0.027630
2.970000	6.915000	0.248660	0.027635
2.980000	6.930000	0.248060	0.027693
2.990000	6.945000	0.247672	0.027802
3.000000	6.959000	0.247496	0.027963
3.010000	6.973000	0.247530	0.028176
3.020000	6.985000	0.247773	0.028440
3.030000	6.996000	0.248222	0.028754
3.040000	7.006000	0.248876	0.029120
3.050000	7.014000	0.249731	0.029536
3.060000	7.020000	0.250786	0.030002
3.070000	7.023000	0.252037	0.030519
3.080000	7.023000	0.253480	0.031086
3.090000	7.020000	0.255112	0.031703
3.100000	7.013000	0.256928	0.032370
3.110000	7.003000	0.258925	0.033087
3.120000	6.990000	0.261096	0.033855
3.130000	6.975000	0.263438	0.034672
3.140000	6.960000	0.265944	0.035540
3.150000	6.945000	0.268609	0.036458
3.160000	6.931000	0.271428	0.037426
3.170000	6.919000	0.274392	0.038445
3.180000	6.912000	0.277496	0.039515
3.190000	6.908000	0.280733	0.040635
3.200000	6.909000	0.284095	0.041806
3.210000	6.914000	0.287575	0.043029
3.220000	6.923000	0.291175	0.044303
3.230000	6.935000	0.294897	0.045627
3.240000	6.949000	0.298735	0.047001
3.250000	6.962000	0.302683	0.048425
3.260000	6.974000	0.306736	0.049900
3.270000	6.984000	0.310889	0.051425
3.280000	6.989000	0.315135	0.053001
3.290000	6.991000	0.319470	0.054626
3.300000	6.987000	0.323889	0.056301
3.310000	6.978000	0.328386	0.058025
3.320000	6.965000	0.332955	0.059800
3.330000	6.949000	0.337592	0.061623
3.340000	6.932000	0.342290	0.063495
3.350000	6.913000	0.347046	0.065417
3.360000	6.896000	0.351853	0.067386
3.370000	6.882000	0.356707	0.069404
3.380000	6.871000	0.361602	0.071470
3.390000	6.864000	0.366533	0.073583
3.400000	6.863000	0.371494	0.075744
3.410000	6.866000	0.376482	0.077951
3.420000	6.873000	0.381490	0.080205
3.430000	6.884000	0.386513	0.082504
3.440000	6.898000	0.391547	0.084849
3.450000	6.913000	0.396587	0.087239
3.460000	6.928000	0.401627	0.089674
3.470000	6.941000	0.406662	0.092152
3.480000	6.952000	0.411687	0.094674
3.490000	6.960000	0.416701	0.097238
3.500000	6.963000	0.421712	0.099844
3.510000	6.963000	0.426717	0.102490
3.520000	6.958000	0.431711	0.105177
3.530000	6.949000	0.436689	0.107902
3.540000	6.936000	0.441647	0.110665
3.550000	6.921000	0.446581	0.113465
3.560000	6.904000	0.451488	0.116301
3.570000	6.885000	0.456363	0.119172
3.580000	6.867000	0.461204	0.122076
3.590000	6.850000	0.466008	0.125013
3.600000	6.835000	0.470771	0.127982
3.610000	6.822000	0.475493	0.130980
3.620000	6.814000	0.480171	0.134008
3.630000	6.809000	0.484803	0.137063
3.640000	6.810000	0.489388	0.140145
3.650000	6.815000	0.493925	0.143252
3.660000	6.826000	0.498412	0.146382
3.670000	6.841000	0.502850	0.149535
3.680000	6.861000	0.507238	0.152708
3.690000	6.884000	0.511576	0.155901
3.700000	6.910000	0.515864	0.159112
3.710000	6.938000	0.520104	0.162339
3.720000	6.966000	0.524295	0.165580
3.730000	6.993000	0.528440	0.168835
3.740000	7.018000	0.532539	0.172101
3.750000	7.040000	0.536594	0.175376
3.760000	7.058000	0.540608	0.178660
3.770000	7.070000	0.544583	0.181950
3.780000	7.078000	0.548525	0.185244
3.790000	7.080000	0.552438	0.188541
3.800000	7.077000	0.556319	0.191840
3.810000	7.070000	0.560166	0.195138
3.820000	7.058000	0.563977	0.198433
3.830000	7.043000	0.567750	0.201723
3.840000	7.027000	0.571484	0.205007
3.850000	7.009000	0.575175	0.208283
3.860000	6.991000	0.578823	0.211548
3.870000	6.973000	0.582425	0.214801
3.880000	6.955000	0.585982	0.218041
3.890000	6.939000	0.589490	0.221265
3.900000	6.924000	0.592948	0.224471
3.910000	6.910000	0.596357	0.227657
3.920000	6.898000	0.599713	0.230823
3.930000	6.886000	0.603018	0.233965
3.940000	6.875000	0.606268	0.237083
3.950000	6.865000	0.609465	0.240174
3.960000	6.856000	0.612607	0.243237
3.970000	6.848000	0.615693	0.246270
3.980000	6.842000	0.618723	0.249271
3.990000	6.838000	0.621697	0.252238
4.000000	6.837000	0.624615	0.255170
4.010000	6.837000	0.627476	0.258065
4.020000	6.841000	0.630280	0.260922
4.030000	6.847000	0.633028	0.263738
4.040000	6.855000	0.635720	0.266512
4.050000	6.865000	0.638355	0.269242
4.060000	6.875000	0.640935	0.271927
4.070000	6.886000	0.643472	0.274565
4.080000	6.895000	0.645967	0.277155
4.090000	6.902000	0.648420	0.279695
4.100000	6.906000	0.650831	0.282183
4.110000	6.905000	0.653201	0.284617
4.120000	6.901000	0.655529	0.286997
4.130000	6.892000	0.657814	0.289320
4.140000	6.878000	0.660056	0.291586
4.150000	6.861000	0.662255	0.293792
4.160000	6.841000	0.664409	0.295937
4.170000	6.819000	0.666518	0.298021
4.180000	6.796000	0.668580	0.300041
4.190000	6.773000	0.670595	0.301997
4.200000	6.752000	0.672561	0.303888
4.210000	6.734000	0.674477	0.305712
4.220000	6.718000	0.676341	0.307469
4.230000	6.705000	0.678152	0.309157
4.240000	6.696000	0.679907	0.310776
4.250000	6.690000	0.681606	0.312324
4.260000	6.688000	0.683245	0.313802
4.270000	6.687000	0.684824	0.315208
4.280000	6.689000	0.686339	0.316541
4.290000	6.691000	0.687788	0.317801
4.300000	6.695000	0.689169	0.318988
4.310000	6.699000	0.690490	0.320100
4.320000	6.704000	0.691759	0.321137
4.330000	6.708000	0.692975	0.322099
4.340000	6.712000	0.694139	0.322984
4.350000	6.716000	0.695252	0.323792
4.360000	6.719000	0.696311	0.324523
4.370000	6.721000	0.697319	0.325177
4.380000	6.722000	0.698272	0.325753
4.390000	6.720000	0.699172	0.326250
4.400000	6.716000	0.700017	0.326670
4.410000	6.708000	0.700806	0.327011
4.420000	6.697000	0.701537	0.327273
4.430000	6.681000	0.702210	0.327457
4.440000	6.661000	0.702821	0.327563
4.450000	6.637000	0.703370	0.327590
4.460000	6.609000	0.703854	0.327539
4.470000	6.578000	0.704271	0.327410
4.480000	6.545000	0.704619	0.327204
4.490000	6.513000	0.704894	0.326920
4.500000	6.482000	0.705095	0.326558
4.510000	6.455000	0.705217	0.326121
4.520000	6.433000	0.705258	0.325607
4.530000	6.418000	0.705214	0.325018
4.540000	6.411000	0.705082	0.324353
4.550000	6.412000	0.704858	0.323615
4.560000	6.423000	0.704542	0.322802
4.570000	6.441000	0.704140	0.321916
4.580000	6.466000	0.703657	0.320957
4.590000	6.496000	0.703097	0.319926
4.600000	6.530000	0.702465	0.318825
4.610000	6.565000	0.701763	0.317652
4.620000	6.599000	0.700996	0.316411
4.630000	6.629000	0.700166	0.315100
4.640000	6.654000	0.699276	0.313722
4.650000	6.673000	0.698329	0.312278
4.660000	6.684000	0.697327	0.310768
4.670000	6.688000	0.696271	0.309193
4.680000	6.684000	0.695162	0.307554
4.690000	6.673000	0.694002	0.305853
4.700000	6.657000	0.692792	0.304091
4.710000	6.636000	0.691530	0.302269
4.720000	6.614000	0.690219	0.300388
4.730000	6.591000	0.688856	0.298449
4.740000	6.569000	0.687433	0.296453
4.750000	6.550000	0.685942	0.294403
4.760000	6.535000	0.684384	0.292300
4.770000	6.525000	0.682757	0.290144
4.780000	6.521000	0.681062	0.287938
4.790000	6.521000	0.679300	0.285683
4.800000	6.527000	0.677469	0.283380
4.810000	6.538000	0.675572	0.281031
4.820000	6.552000	0.673609	0.278638
4.830000	6.569000	0.671582	0.276202
4.840000	6.588000	0.669493	0.273725
4.850000	6.606000	0.667343	0.271207
4.860000	6.624000	0.665135	0.268652
4.870000	6.639000	0.662871	0.266060
4.880000	6.651000	0.660555	0.263433
4.890000	6.659000	0.658189	0.260773
4.900000	6.662000	0.655777	0.258081
4.910000	6.660000	0.653322	0.255359
4.920000	6.654000	0.650816	0.252609
4.930000	6.644000	0.648254	0.249831
4.940000	6.630000	0.645636	0.247029
4.950000	6.614000	0.642963	0.244203
4.960000	6.597000	0.640233	0.241355
4.970000	6.580000	0.637448	0.238488
4.980000	6.565000	0.634609	0.235603
4.990000	6.553000	0.631715	0.232702
5.000000	6.546000	0.628767	0.229787
5.010000	6.544000	0.625767	0.226858
5.020000	6.548000	0.622716	0.223919
5.030000	6.558000	0.619614	0.220971
5.040000	6.573000	0.616464	0.218015
5.050000	6.592000	0.613266	0.215053
5.060000	6.615000	0.610022	0.212087
5.070000	6.639000	0.606735	0.209119
5.080000	6.663000	0.603406	0.206149
5.090000	6.687000	0.600037	0.203181
5.100000	6.707000	0.596630	0.200215
5.110000	6.723000	0.593189	0.197253
5.120000	6.735000	0.589714	0.194296
5.130000	6.742000	0.586211	0.191347
5.140000	6.744000	0.582680	0.188407
5.150000	6.742000	0.579125	0.185477
5.160000	6.736000	0.575550	0.182559
5.170000	6.729000	0.571957	0.179654
5.180000	6.720000	0.568350	0.176764
5.190000	6.712000	0.564733	0.173891
5.200000	6.706000	0.561110	0.171036
5.210000	6.702000	0.557483	0.168200
5.220000	6.700000	0.553858	0.165385
5.230000	6.700000	0.550239	0.162593
5.240000	6.702000	0.546630	0.159825
5.250000	6.705000	0.543019	0.157081
5.260000	6.707000	0.539395	0.154365
5.270000	6.709000	0.535759	0.151676
5.280000	6.708000	0.532112	0.149016
5.290000	6.704000	0.528457	0.146387
5.300000	6.697000	0.524796	0.143789
5.310000	6.686000	0.521130	0.141224
5.320000	6.673000	0.517462	0.138693
5.330000	6.658000	0.513794	0.136197
5.340000	6.642000	0.510126	0.133737
5.350000	6.627000	0.506463	0.131314
5.360000	6.614000	0.502804	0.128929
5.370000	6.605000	0.499152	0.126583
5.380000	6.600000	0.495510	0.124277
5.390000	6.599000	0.491879	0.122012
5.400000	6.604000	0.488261	0.119789
5.410000	6.614000	0.484658	0.117609
5.420000	6.627000	0.481072	0.115473
5.430000	6.643000	0.477505	0.113381
5.440000	6.659000	0.473959	0.111335
5.450000	6.675000	0.470436	0.109334
5.460000	6.689000	0.466938	0.107380
5.470000	6.699000	0.463467	0.105474
5.480000	6.705000	0.460024	0.103616
5.490000	6.707000	0.456613	0.101807
5.500000	6.705000	0.453235	0.100047
5.510000	6.699000	0.449892	0.098338
5.520000	6.691000	0.446585	0.096679
