# Time (s), Wind Speed (m/s), Blade Displacement (m), Tower Displacement (m)
0.000000	6.089000	0.000000	0.000000
0.010000	6.092000	0.000207	0.000000
0.020000	6.095000	0.000824	0.000000
0.030000	6.098000	0.001844	0.000001
0.040000	6.101000	0.003262	0.000002
0.050000	6.105000	0.005069	0.000004
0.060000	6.108000	0.007260	0.000008
0.070000	6.111000	0.009826	0.000014
0.080000	6.115000	0.012759	0.000024
0.090000	6.120000	0.016051	0.000038
0.100000	6.125000	0.019692	0.000057
0.110000	6.130000	0.023675	0.000082
0.120000	6.136000	0.027989	0.000115
0.130000	6.143000	0.032626	0.000157
0.140000	6.150000	0.037576	0.000210
0.150000	6.156000	0.042828	0.000274
0.160000	6.162000	0.048373	0.000351
0.170000	6.166000	0.054199	0.000444
0.180000	6.168000	0.060296	0.000554
0.190000	6.169000	0.066652	0.000682
0.200000	6.167000	0.073256	0.000831
0.210000	6.163000	0.080095	0.001002
0.220000	6.158000	0.087157	0.001197
0.230000	6.151000	0.094430	0.001419
0.240000	6.143000	0.101899	0.001670
0.250000	6.135000	0.109550	0.001951
0.260000	6.128000	0.117371	0.002265
0.270000	6.122000	0.125347	0.002614
0.280000	6.119000	0.133468	0.003001
0.290000	6.119000	0.141720	0.003426
0.300000	6.121000	0.150090	0.003893
0.310000	6.127000	0.158568	0.004404
0.320000	6.136000	0.167140	0.004960
0.330000	6.148000	0.175797	0.005564
0.340000	6.162000	0.184526	0.006218
0.350000	6.177000	0.193318	0.006925
0.360000	6.192000	0.202160	0.007686
0.370000	6.208000	0.211046	0.008503
0.380000	6.223000	0.219966	0.009378
0.390000	6.237000	0.228909	0.010313
0.400000	6.248000	0.237865	0.011310
0.410000	6.259000	0.246825	0.012372
0.420000	6.267000	0.255777	0.013500
0.430000	6.272000	0.264712	0.014695
0.440000	6.276000	0.273620	0.015960
0.450000	6.278000	0.282492	0.017297
0.460000	6.278000	0.291317	0.018706
0.470000	6.275000	0.300086	0.020189
0.480000	6.271000	0.308790	0.021747
0.490000	6.265000	0.317420	0.023383
0.500000	6.256000	0.325965	0.025096
0.510000	6.245000	0.334417	0.026887
0.520000	6.233000	0.342766	0.028759
0.530000	6.218000	0.351005	0.030711
0.540000	6.202000	0.359123	0.032745
0.550000	6.184000	0.367112	0.034860
0.560000	6.167000	0.374962	0.037057
0.570000	6.150000	0.382666	0.039336
0.580000	6.134000	0.390216	0.041697
0.590000	6.120000	0.397605	0.044142
0.600000	6.109000	0.404828	0.046671
0.610000	6.102000	0.411879	0.049284
0.620000	6.098000	0.418753	0.051980
0.630000	6.098000	0.425445	0.054760
0.640000	6.102000	0.431953	0.057623
0.650000	6.110000	0.438272	0.060568
0.660000	6.119000	0.444401	0.063596
0.670000	6.131000	0.450338	0.066705
0.680000	6.143000	0.456082	0.069895
0.690000	6.154000	0.461631	0.073163
0.700000	6.164000	0.466987	0.076510
0.710000	6.171000	0.472149	0.079932
0.720000	6.176000	0.477119	0.083430
0.730000	6.179000	0.481898	0.087000
0.740000	6.178000	0.486490	0.090641
0.750000	6.176000	0.490898	0.094352
0.760000	6.172000	0.495124	0.098128
0.770000	6.167000	0.499174	0.101969
0.780000	6.161000	0.503052	0.105872
0.790000	6.157000	0.506764	0.109833
0.800000	6.153000	0.510307	0.113851
0.810000	6.151000	0.513680	0.117924
0.820000	6.150000	0.516887	0.122048
0.830000	6.151000	0.519929	0.126223
0.840000	6.152000	0.522810	0.130444
0.850000	6.154000	0.525533	0.134708
0.860000	6.155000	0.528101	0.139014
0.870000	6.155000	0.530519	0.143357
0.880000	6.153000	0.532790	0.147736
0.890000	6.150000	0.534918	0.152146
0.900000	6.145000	0.536908	0.156584
0.910000	6.138000	0.538763	0.161048
0.920000	6.129000	0.540488	0.165534
0.930000	6.120000	0.542088	0.170037
0.940000	6.110000	0.543569	0.174556
0.950000	6.101000	0.544934	0.179085
0.960000	6.093000	0.546191	0.183622
0.970000	6.087000	0.547343	0.188163
0.980000	6.083000	0.548397	0.192703
0.990000	6.081000	0.549359	0.197239
1.000000	6.082000	0.550235	0.201767
1.010000	6.084000	0.551032	0.206283
1.020000	6.087000	0.551755	0.210782
1.030000	6.092000	0.552411	0.215261
1.040000	6.096000	0.553008	0.219714
1.050000	6.100000	0.553552	0.224138
1.060000	6.103000	0.554043	0.228531
1.070000	6.105000	0.554488	0.232890
1.080000	6.106000	0.554895	0.237210
1.090000	6.106000	0.555272	0.241487
1.100000	6.106000	0.555625	0.245718
1.110000	6.106000	0.555963	0.249898
1.120000	6.107000	0.556292	0.254024
1.130000	6.109000	0.556618	0.258092
1.140000	6.114000	0.556948	0.262098
1.150000	6.120000	0.557287	0.266040
1.160000	6.128000	0.557642	0.269913
1.170000	6.139000	0.558018	0.273714
1.180000	6.150000	0.558419	0.277441
1.190000	6.162000	0.558851	0.281089
1.200000	6.173000	0.559318	0.284656
1.210000	6.183000	0.559825	0.288138
1.220000	6.190000	0.560374	0.291533
1.230000	6.195000	0.560971	0.294839
1.240000	6.195000	0.561618	0.298051
1.250000	6.193000	0.562318	0.301168
1.260000	6.186000	0.563075	0.304187
1.270000	6.177000	0.563890	0.307105
1.280000	6.165000	0.564766	0.309920
1.290000	6.151000	0.565703	0.312630
1.300000	6.137000	0.566697	0.315233
1.310000	6.123000	0.567748	0.317727
1.320000	6.111000	0.568857	0.320110
1.330000	6.100000	0.570024	0.322380
1.340000	6.091000	0.571248	0.324535
1.350000	6.085000	0.572529	0.326574
1.360000	6.081000	0.573867	0.328494
1.370000	6.078000	0.575261	0.330295
1.380000	6.076000	0.576709	0.331976
1.390000	6.074000	0.578210	0.333534
1.400000	6.072000	0.579764	0.334970
1.410000	6.069000	0.581368	0.336282
1.420000	6.065000	0.583020	0.337470
1.430000	6.059000	0.584719	0.338534
1.440000	6.051000	0.586461	0.339472
1.450000	6.042000	0.588245	0.340284
1.460000	6.032000	0.590068	0.340972
1.470000	6.021000	0.591926	0.341534
1.480000	6.010000	0.593817	0.341970
1.490000	6.000000	0.595737	0.342282
1.500000	5.991000	0.597683	0.342470
1.510000	5.983000	0.599650	0.342533
1.520000	5.977000	0.601635	0.342474
1.530000	5.973000	0.603633	0.342293
1.540000	5.970000	0.605642	0.341989
1.550000	5.968000	0.607657	0.341565
1.560000	5.966000	0.609675	0.341020
1.570000	5.965000	0.611690	0.340356
1.580000	5.964000	0.613698	0.339575
1.590000	5.962000	0.615697	0.338677
1.600000	5.960000	0.617680	0.337664
1.610000	5.957000	0.619644	0.336537
1.620000	5.953000	0.621585	0.335298
1.630000	5.949000	0.623498	0.333949
1.640000	5.945000	0.625380	0.332491
1.650000	5.941000	0.627224	0.330926
1.660000	5.938000	0.629028	0.329256
1.670000	5.936000	0.630787	0.327484
1.680000	5.935000	0.632495	0.325612
1.690000	5.935000	0.634150	0.323641
1.700000	5.937000	0.635746	0.321574
1.710000	5.939000	0.637278	0.319414
1.720000	5.943000	0.638743	0.317163
1.730000	5.947000	0.640135	0.314824
1.740000	5.951000	0.641450	0.312400
1.750000	5.956000	0.642684	0.309893
1.760000	5.960000	0.643834	0.307306
1.770000	5.964000	0.644899	0.304640
1.780000	5.967000	0.645875	0.301900
1.790000	5.969000	0.646758	0.299086
1.800000	5.971000	0.647544	0.296204
1.810000	5.973000	0.648230	0.293255
1.820000	5.975000	0.648812	0.290242
1.830000	5.976000	0.649286	0.287168
1.840000	5.978000	0.649650	0.284037
1.850000	5.979000	0.649901	0.280850
1.860000	5.980000	0.650035	0.277612
1.870000	5.981000	0.650049	0.274324
1.880000	5.982000	0.649941	0.270990
1.890000	5.982000	0.649707	0.267613
1.900000	5.982000	0.649346	0.264196
1.910000	5.981000	0.648854	0.260742
1.920000	5.978000	0.648230	0.257253
1.930000	5.975000	0.647470	0.253733
1.940000	5.970000	0.646573	0.250184
1.950000	5.965000	0.645537	0.246610
1.960000	5.960000	0.644359	0.243013
1.970000	5.954000	0.643038	0.239397
1.980000	5.949000	0.641572	0.235764
1.990000	5.944000	0.639963	0.232116
2.000000	5.939000	0.638211	0.228455
2.010000	5.935000	0.636314	0.224784
2.020000	5.933000	0.634268	0.221107
2.030000	5.931000	0.632074	0.217427
2.040000	5.929000	0.629729	0.213746
2.050000	5.928000	0.627233	0.210067
2.060000	5.926000	0.624585	0.206393
2.070000	5.925000	0.621784	0.202727
2.080000	5.923000	0.618831	0.199071
2.090000	5.920000	0.615725	0.195427
2.100000	5.916000	0.612467	0.191799
2.110000	5.911000	0.609058	0.188188
2.120000	5.905000	0.605498	0.184597
2.130000	5.899000	0.601790	0.181027
2.140000	5.892000	0.597935	0.177481
2.150000	5.886000	0.593934	0.173961
2.160000	5.879000	0.589790	0.170469
2.170000	5.874000	0.585506	0.167006
2.180000	5.869000	0.581084	0.163574
2.190000	5.865000	0.576528	0.160176
2.200000	5.862000	0.571840	0.156811
2.210000	5.860000	0.567024	0.153482
2.220000	5.859000	0.562085	0.150190
2.230000	5.859000	0.557027	0.146937
2.240000	5.859000	0.551854	0.143724
2.250000	5.859000	0.546571	0.140551
2.260000	5.860000	0.541183	0.137420
2.270000	5.860000	0.535696	0.134331
2.280000	5.861000	0.530116	0.131286
2.290000	5.861000	0.524447	0.128286
2.300000	5.861000	0.518693	0.125332
2.310000	5.861000	0.512859	0.122424
2.320000	5.860000	0.506950	0.119564
2.330000	5.860000	0.500970	0.116753
2.340000	5.859000	0.494924	0.113991
2.350000	5.857000	0.488819	0.111279
2.360000	5.856000	0.482658	0.108618
2.370000	5.854000	0.476447	0.106008
2.380000	5.852000	0.470191	0.103450
2.390000	5.849000	0.463896	0.100945
2.400000	5.846000	0.457567	0.098492
2.410000	5.842000	0.451210	0.096093
2.420000	5.839000	0.444831	0.093747
2.430000	5.835000	0.438435	0.091454
2.440000	5.833000	0.432028	0.089215
2.450000	5.831000	0.425617	0.087029
2.460000	5.830000	0.419206	0.084898
2.470000	5.832000	0.412803	0.082820
2.480000	5.836000	0.406414	0.080795
2.490000	5.841000	0.400044	0.078824
2.500000	5.850000	0.393701	0.076905
2.510000	5.861000	0.387390	0.075039
2.520000	5.873000	0.381118	0.073226
2.530000	5.887000	0.374892	0.071464
2.540000	5.901000	0.368719	0.069753
2.550000	5.916000	0.362605	0.068092
2.560000	5.930000	0.356558	0.066481
2.570000	5.941000	0.350584	0.064920
2.580000	5.951000	0.344690	0.063406
2.590000	5.958000	0.338880	0.061942
2.600000	5.961000	0.333157	0.060528
2.610000	5.962000	0.327526	0.059163
2.620000	5.959000	0.321994	0.057846
2.630000	5.954000	0.316564	0.056577
2.640000	5.948000	0.311242	0.055354
2.650000	5.940000	0.306033	0.054178
2.660000	5.932000	0.300940	0.053047
2.670000	5.924000	0.295969	0.051962
2.680000	5.918000	0.291121	0.050920
2.690000	5.913000	0.286403	0.049922
2.700000	5.910000	0.281816	0.048967
2.710000	5.909000	0.277364	0.048055
2.720000	5.909000	0.273051	0.047184
2.730000	5.911000	0.268878	0.046355
2.740000	5.915000	0.264849	0.045567
2.750000	5.918000	0.260966	0.044819
2.760000	5.922000	0.257231	0.044110
2.770000	5.925000	0.253646	0.043441
2.780000	5.927000	0.250213	0.042811
2.790000	5.928000	0.246933	0.042220
2.800000	5.927000	0.243807	0.041666
2.810000	5.926000	0.240837	0.041150
2.820000	5.923000	0.238023	0.040672
2.830000	5.921000	0.235366	0.040230
2.840000	5.917000	0.232866	0.039824
2.850000	5.915000	0.230523	0.039455
2.860000	5.913000	0.228338	0.039121
2.870000	5.911000	0.226310	0.038823
2.880000	5.912000	0.224439	0.038560
2.890000	5.913000	0.222723	0.038333
2.900000	5.916000	0.221162	0.038139
2.910000	5.920000	0.219758	0.037981
2.920000	5.925000	0.218511	0.037857
2.930000	5.930000	0.217422	0.037766
2.940000	5.936000	0.216490	0.037709
2.950000	5.943000	0.215717	0.037686
2.960000	5.949000	0.215101	0.037695
2.970000	5.956000	0.214644	0.037736
2.980000	5.962000	0.214343	0.037810
2.990000	5.968000	0.214198	0.037916
3.000000	5.974000	0.214209	0.038054
3.010000	5.980000	0.214374	0.038224
3.020000	5.985000	0.214692	0.038425
3.030000	5.989000	0.215160	0.038658
3.040000	5.993000	0.215778	0.038922
3.050000	5.997000	0.216543	0.039218
3.060000	5.999000	0.217453	0.039545
3.070000	6.000000	0.218506	0.039903
3.080000	6.000000	0.219698	0.040292
3.090000	5.999000	0.221027	0.040713
3.100000	5.996000	0.222490	0.041165
3.110000	5.992000	0.224083	0.041649
3.120000	5.987000	0.225802	0.042164
3.130000	5.981000	0.227645	0.042712
3.140000	5.974000	0.229607	0.043291
3.150000	5.968000	0.231683	0.043903
3.160000	5.962000	0.233870	0.044547
3.170000	5.958000	0.236162	0.045224
3.180000	5.955000	0.238555	0.045934
3.190000	5.953000	0.241044	0.046677
3.200000	5.954000	0.243627	0.047453
3.210000	5.956000	0.246304	0.048262
3.220000	5.959000	0.249070	0.049104
3.230000	5.964000	0.251921	0.049979
3.240000	5.970000	0.254854	0.050886
3.250000	5.975000	0.257864	0.051827
3.260000	5.980000	0.260946	0.052801
3.270000	5.984000	0.264097	0.053809
3.280000	5.986000	0.267313	0.054850
3.290000	5.987000	0.270589	0.055924
3.300000	5.985000	0.273922	0.057032
3.310000	5.982000	0.277307	0.058174
3.320000	5.976000	0.280741	0.059349
3.330000	5.970000	0.284220	0.060558
3.340000	5.963000	0.287739	0.061800
3.350000	5.955000	0.291296	0.063076
3.360000	5.948000	0.294885	0.064385
3.370000	5.942000	0.298505	0.065727
3.380000	5.938000	0.302149	0.067103
3.390000	5.935000	0.305816	0.068511
3.400000	5.935000	0.309501	0.069953
3.410000	5.936000	0.313201	0.071427
3.420000	5.939000	0.316911	0.072935
3.430000	5.943000	0.320629	0.074474
3.440000	5.949000	0.324350	0.076047
3.450000	5.955000	0.328072	0.077651
3.460000	5.961000	0.331791	0.079287
3.470000	5.966000	0.335507	0.080954
3.480000	5.971000	0.339219	0.082652
3.490000	5.974000	0.342926	0.084380
3.500000	5.976000	0.346622	0.086138
3.510000	5.975000	0.350306	0.087926
3.520000	5.973000	0.353975	0.089743
3.530000	5.970000	0.357626	0.091588
3.540000	5.964000	0.361257	0.093462
3.550000	5.958000	0.364865	0.095363
3.560000	5.951000	0.368448	0.097290
3.570000	5.944000	0.372004	0.099245
3.580000	5.936000	0.375531	0.101225
3.590000	5.929000	0.379027	0.103230
3.600000	5.923000	0.382491	0.105259
3.610000	5.918000	0.385920	0.107312
3.620000	5.915000	0.389314	0.109388
3.630000	5.913000	0.392671	0.111485
3.640000	5.913000	0.395989	0.113604
3.650000	5.915000	0.399269	0.115743
3.660000	5.919000	0.402508	0.117902
3.670000	5.926000	0.405707	0.120079
3.680000	5.934000	0.408864	0.122273
3.690000	5.943000	0.411979	0.124484
3.700000	5.954000	0.415051	0.126711
3.710000	5.965000	0.418081	0.128951
3.720000	5.976000	0.421068	0.131205
3.730000	5.987000	0.424012	0.133471
3.740000	5.998000	0.426914	0.135748
3.750000	6.007000	0.429773	0.138035
3.760000	6.014000	0.432590	0.140331
3.770000	6.019000	0.435365	0.142633
3.780000	6.022000	0.438100	0.144942
3.790000	6.023000	0.440795	0.147255
3.800000	6.022000	0.443450	0.149571
3.810000	6.019000	0.446067	0.151890
3.820000	6.014000	0.448644	0.154209
3.830000	6.008000	0.451181	0.156528
3.840000	6.001000	0.453678	0.158845
3.850000	5.994000	0.456135	0.161159
3.860000	5.986000	0.458551	0.163468
3.870000	5.979000	0.460926	0.165771
3.880000	5.972000	0.463260	0.168068
3.890000	5.965000	0.465553	0.170356
3.900000	5.959000	0.467805	0.172634
3.910000	5.954000	0.470016	0.174901
3.920000	5.948000	0.472186	0.177155
3.930000	5.944000	0.474315	0.179396
3.940000	5.939000	0.476404	0.181622
3.950000	5.935000	0.478452	0.183832
3.960000	5.931000	0.480461	0.186024
3.970000	5.928000	0.482430	0.188196
3.980000	5.926000	0.484359	0.190349
3.990000	5.924000	0.486250	0.192480
4.000000	5.924000	0.488103	0.194588
4.010000	5.924000	0.489919	0.196672
4.020000	5.925000	0.491698	0.198730
4.030000	5.928000	0.493440	0.200762
4.040000	5.931000	0.495147	0.202765
4.050000	5.935000	0.496819	0.204739
4.060000	5.939000	0.498458	0.206683
4.070000	5.943000	0.500064	0.208594
4.080000	5.947000	0.501638	0.210471
4.090000	5.950000	0.503181	0.212315
4.100000	5.952000	0.504695	0.214122
4.110000	5.951000	0.506180	0.215892
4.120000	5.950000	0.507637	0.217623
4.130000	5.946000	0.509069	0.219314
4.140000	5.940000	0.510476	0.220965
4.150000	5.933000	0.511859	0.222573
4.160000	5.925000	0.513220	0.224137
4.170000	5.916000	0.514557	0.225656
4.180000	5.907000	0.515863	0.227132
4.190000	5.898000	0.517138	0.228563
4.200000	5.889000	0.518384	0.229947
4.210000	5.881000	0.519600	0.231285
4.220000	5.875000	0.520786	0.232574
4.230000	5.870000	0.521945	0.233815
4.240000	5.866000	0.523075	0.235006
4.250000	5.864000	0.524177	0.236147
4.260000	5.863000	0.525252	0.237237
4.270000	5.862000	0.526299	0.238275
4.280000	5.863000	0.527320	0.239261
4.290000	5.864000	0.528313	0.240193
4.300000	5.866000	0.529280	0.241072
4.310000	5.867000	0.530220	0.241897
4.320000	5.869000	0.531134	0.242668
4.330000	5.871000	0.532021	0.243383
4.340000	5.873000	0.532881	0.244044
4.350000	5.874000	0.533714	0.244648
4.360000	5.875000	0.534520	0.245197
4.370000	5.876000	0.535298	0.245690
4.380000	5.876000	0.536050	0.246126
4.390000	5.876000	0.536773	0.246506
4.400000	5.874000	0.537468	0.246830
4.410000	5.871000	0.538135	0.247096
4.420000	5.866000	0.538773	0.247307
4.430000	5.860000	0.539381	0.247460
4.440000	5.852000	0.539959	0.247557
4.450000	5.842000	0.540506	0.247598
4.460000	5.830000	0.541022	0.247582
4.470000	5.818000	0.541506	0.247511
4.480000	5.804000	0.541957	0.247384
4.490000	5.791000	0.542375	0.247201
4.500000	5.779000	0.542757	0.246963
4.510000	5.768000	0.543096	0.246670
4.520000	5.759000	0.543388	0.246323
4.530000	5.753000	0.543635	0.245921
4.540000	5.750000	0.543836	0.245466
4.550000	5.750000	0.543992	0.244957
4.560000	5.754000	0.544102	0.244396
4.570000	5.762000	0.544167	0.243783
4.580000	5.772000	0.544187	0.243117
4.590000	5.785000	0.544163	0.242401
4.600000	5.798000	0.544095	0.241635
4.610000	5.812000	0.543983	0.240819
4.620000	5.826000	0.543828	0.239954
4.630000	5.839000	0.543631	0.239040
4.640000	5.849000	0.543393	0.238080
4.650000	5.856000	0.543113	0.237072
4.660000	5.861000	0.542794	0.236019
4.670000	5.862000	0.542435	0.234920
4.680000	5.861000	0.542039	0.233778
4.690000	5.856000	0.541605	0.232592
4.700000	5.850000	0.541134	0.231364
4.710000	5.841000	0.540626	0.230094
4.720000	5.832000	0.540073	0.228784
4.730000	5.823000	0.539475	0.227435
4.740000	5.814000	0.538829	0.226048
4.750000	5.806000	0.538136	0.224623
4.760000	5.800000	0.537394	0.223162
4.770000	5.796000	0.536602	0.221666
4.780000	5.794000	0.535761	0.220136
4.790000	5.795000	0.534868	0.218574
4.800000	5.797000	0.533926	0.216980
4.810000	5.801000	0.532932	0.215355
4.820000	5.807000	0.531887	0.213701
4.830000	5.814000	0.530792	0.212018
4.840000	5.822000	0.529647	0.210309
4.850000	5.829000	0.528452	0.208574
4.860000	5.836000	0.527207	0.206814
4.870000	5.842000	0.525915	0.205030
4.880000	5.847000	0.524574	0.203225
4.890000	5.850000	0.523188	0.201398
4.900000	5.852000	0.521756	0.199551
4.910000	5.851000	0.520280	0.197687
4.920000	5.848000	0.518756	0.195804
4.930000	5.844000	0.517183	0.193905
4.940000	5.839000	0.515562	0.191991
4.950000	5.832000	0.513891	0.190064
4.960000	5.825000	0.512172	0.188124
4.970000	5.818000	0.510404	0.186173
4.980000	5.812000	0.508589	0.184212
4.990000	5.807000	0.506726	0.182242
5.000000	5.805000	0.504816	0.180264
5.010000	5.804000	0.502861	0.178280
5.020000	5.805000	0.500860	0.176291
5.030000	5.809000	0.498815	0.174298
5.040000	5.815000	0.496727	0.172303
5.050000	5.823000	0.494596	0.170305
5.060000	5.832000	0.492425	0.168307
5.070000	5.842000	0.490214	0.166310
5.080000	5.852000	0.487964	0.164314
5.090000	5.862000	0.485677	0.162321
5.100000	5.870000	0.483355	0.160332
5.110000	5.877000	0.480999	0.158348
5.120000	5.881000	0.478611	0.156370
5.130000	5.884000	0.476193	0.154399
5.140000	5.885000	0.473746	0.152436
5.150000	5.884000	0.471273	0.150482
5.160000	5.882000	0.468776	0.148538
5.170000	5.879000	0.466256	0.146605
5.180000	5.875000	0.463717	0.144685
5.190000	5.872000	0.461160	0.142777
5.200000	5.870000	0.458584	0.140883
5.210000	5.868000	0.455987	0.139003
5.220000	5.867000	0.453371	0.137138
5.230000	5.867000	0.450738	0.135289
5.240000	5.868000	0.448088	0.133458
5.250000	5.869000	0.445423	0.131644
5.260000	5.870000	0.442744	0.129850
5.270000	5.871000	0.440052	0.128075
5.280000	5.870000	0.437349	0.126321
5.290000	5.869000	0.434637	0.124588
5.300000	5.866000	0.431916	0.122878
5.310000	5.861000	0.429189	0.121191
5.320000	5.856000	0.426456	0.119528
5.330000	5.850000	0.423719	0.117889
5.340000	5.843000	0.420979	0.116275
5.350000	5.837000	0.418238	0.114687
5.360000	5.832000	0.415498	0.113125
5.370000	5.828000	0.412760	0.111590
5.380000	5.826000	0.410026	0.110082
5.390000	5.826000	0.407296	0.108603
5.400000	5.828000	0.404574	0.107152
5.410000	5.832000	0.401859	0.105729
5.420000	5.837000	0.399155	0.104336
5.430000	5.843000	0.396462	0.102973
5.440000	5.850000	0.393782	0.101640
5.450000	5.857000	0.391117	0.100337
5.460000	5.862000	0.388468	0.099064
5.470000	5.866000	0.385837	0.097823
5.480000	5.869000	0.383227	0.096612
5.490000	5.870000	0.380638	0.095433
5.500000	5.869000	0.378072	0.094286
5.510000	5.866000	0.375531	0.093170
5.520000	5.863000	0.373017	0.092086
