# Time (s), Wind Speed (m/s), Blade Displacement (m), Tower Displacement (m)
0.000000	23.392000	0.000000	0.000000
0.010000	23.426000	0.000285	0.000000
0.020000	23.462000	0.001137	0.000000
0.030000	23.499000	0.002556	0.000001
0.040000	23.536000	0.004537	0.000002
0.050000	23.573000	0.007076	0.000005
0.060000	23.610000	0.010170	0.000011
0.070000	23.649000	0.013812	0.000020
0.080000	23.692000	0.017997	0.000034
0.090000	23.741000	0.022718	0.000053
0.100000	23.797000	0.027968	0.000080
0.110000	23.861000	0.033741	0.000116
0.120000	23.931000	0.040028	0.000162
0.130000	24.006000	0.046822	0.000222
0.140000	24.082000	0.054114	0.000296
0.150000	24.154000	0.061896	0.000388
0.160000	24.217000	0.070156	0.000499
0.170000	24.265000	0.078889	0.000631
0.180000	24.294000	0.088080	0.000789
0.190000	24.299000	0.097713	0.000974
0.200000	24.280000	0.107772	0.001188
0.210000	24.237000	0.118240	0.001437
0.220000	24.172000	0.129098	0.001721
0.230000	24.092000	0.140327	0.002044
0.240000	24.003000	0.151910	0.002410
0.250000	23.914000	0.163825	0.002822
0.260000	23.834000	0.176051	0.003283
0.270000	23.773000	0.188568	0.003796
0.280000	23.737000	0.201352	0.004365
0.290000	23.733000	0.214381	0.004994
0.300000	23.765000	0.227634	0.005686
0.310000	23.832000	0.241096	0.006443
0.320000	23.934000	0.254755	0.007271
0.330000	24.065000	0.268599	0.008171
0.340000	24.220000	0.282616	0.009149
0.350000	24.390000	0.296793	0.010207
0.360000	24.567000	0.311119	0.011350
0.370000	24.744000	0.325579	0.012580
0.380000	24.912000	0.340162	0.013900
0.390000	25.066000	0.354855	0.015315
0.400000	25.201000	0.369645	0.016827
0.410000	25.315000	0.384520	0.018440
0.420000	25.405000	0.399467	0.020156
0.430000	25.472000	0.414472	0.021978
0.440000	25.516000	0.429523	0.023911
0.450000	25.536000	0.444606	0.025955
0.460000	25.534000	0.459709	0.028115
0.470000	25.509000	0.474819	0.030392
0.480000	25.461000	0.489920	0.032790
0.490000	25.389000	0.504985	0.035310
0.500000	25.293000	0.519986	0.037955
0.510000	25.172000	0.534897	0.040728
0.520000	25.028000	0.549694	0.043630
0.530000	24.863000	0.564352	0.046665
0.540000	24.680000	0.578848	0.049834
0.550000	24.486000	0.593160	0.053139
0.560000	24.288000	0.607269	0.056580
0.570000	24.095000	0.621154	0.060159
0.580000	23.916000	0.634797	0.063878
0.590000	23.761000	0.648181	0.067737
0.600000	23.639000	0.661288	0.071736
0.610000	23.556000	0.674105	0.075876
0.620000	23.517000	0.686617	0.080157
0.630000	23.521000	0.698812	0.084579
0.640000	23.568000	0.710677	0.089142
0.650000	23.651000	0.722201	0.093845
0.660000	23.761000	0.733375	0.098688
0.670000	23.889000	0.744191	0.103669
0.680000	24.023000	0.754641	0.108788
0.690000	24.151000	0.764721	0.114042
0.700000	24.262000	0.774449	0.119430
0.710000	24.350000	0.783826	0.124950
0.720000	24.408000	0.792851	0.130599
0.730000	24.435000	0.801523	0.136376
0.740000	24.432000	0.809841	0.142278
0.750000	24.404000	0.817806	0.148303
0.760000	24.358000	0.825418	0.154446
0.770000	24.302000	0.832677	0.160707
0.780000	24.244000	0.839583	0.167080
0.790000	24.192000	0.846140	0.173564
0.800000	24.153000	0.852347	0.180153
0.810000	24.129000	0.858207	0.186844
0.820000	24.121000	0.863722	0.193633
0.830000	24.127000	0.868895	0.200515
0.840000	24.142000	0.873730	0.207486
0.850000	24.161000	0.878229	0.214541
0.860000	24.175000	0.882396	0.221675
0.870000	24.178000	0.886235	0.228882
0.880000	24.163000	0.889752	0.236157
0.890000	24.127000	0.892950	0.243494
0.900000	24.069000	0.895836	0.250888
0.910000	23.990000	0.898414	0.258331
0.920000	23.894000	0.900691	0.265818
0.930000	23.788000	0.902673	0.273342
0.940000	23.679000	0.904365	0.280896
0.950000	23.577000	0.905765	0.288476
0.960000	23.488000	0.906880	0.296075
0.970000	23.419000	0.907717	0.303687
0.980000	23.375000	0.908286	0.311305
0.990000	23.356000	0.908597	0.318922
1.000000	23.363000	0.908661	0.326532
1.010000	23.389000	0.908489	0.334128
1.020000	23.431000	0.908092	0.341702
1.030000	23.481000	0.907483	0.349248
1.040000	23.531000	0.906674	0.356760
1.050000	23.577000	0.905679	0.364229
1.060000	23.612000	0.904512	0.371649
1.070000	23.635000	0.903187	0.379013
1.080000	23.646000	0.901720	0.386314
1.090000	23.649000	0.900125	0.393545
1.100000	23.648000	0.898420	0.400698
1.110000	23.649000	0.896620	0.407766
1.120000	23.660000	0.894744	0.414742
1.130000	23.688000	0.892799	0.421619
1.140000	23.737000	0.890791	0.428392
1.150000	23.810000	0.888740	0.435053
1.160000	23.906000	0.886665	0.441595
1.170000	24.022000	0.884585	0.448012
1.180000	24.151000	0.882517	0.454297
1.190000	24.285000	0.880476	0.460444
1.200000	24.413000	0.878480	0.466447
1.210000	24.525000	0.876542	0.472299
1.220000	24.610000	0.874675	0.477996
1.230000	24.660000	0.872891	0.483531
1.240000	24.671000	0.871203	0.488898
1.250000	24.640000	0.869621	0.494093
1.260000	24.569000	0.868153	0.499110
1.270000	24.462000	0.866809	0.503945
1.280000	24.329000	0.865595	0.508592
1.290000	24.177000	0.864517	0.513047
1.300000	24.020000	0.863571	0.517306
1.310000	23.866000	0.862744	0.521365
1.320000	23.725000	0.862039	0.525220
1.330000	23.605000	0.861458	0.528866
1.340000	23.509000	0.861000	0.532301
1.350000	23.438000	0.860667	0.535522
1.360000	23.389000	0.860461	0.538524
1.370000	23.359000	0.860381	0.541306
1.380000	23.339000	0.860427	0.543864
1.390000	23.323000	0.860600	0.546197
1.400000	23.302000	0.860899	0.548303
1.410000	23.270000	0.861324	0.550179
1.420000	23.222000	0.861874	0.551825
1.430000	23.155000	0.862548	0.553239
1.440000	23.069000	0.863345	0.554420
1.450000	22.966000	0.864264	0.555368
1.460000	22.852000	0.865302	0.556081
1.470000	22.731000	0.866450	0.556561
1.480000	22.611000	0.867697	0.556807
1.490000	22.497000	0.869036	0.556819
1.500000	22.396000	0.870461	0.556598
1.510000	22.311000	0.871965	0.556143
1.520000	22.245000	0.873542	0.555457
1.530000	22.196000	0.875186	0.554539
1.540000	22.163000	0.876890	0.553391
1.550000	22.142000	0.878647	0.552014
1.560000	22.129000	0.880450	0.550410
1.570000	22.118000	0.882292	0.548582
1.580000	22.106000	0.884167	0.546531
1.590000	22.088000	0.886066	0.544259
1.600000	22.063000	0.887983	0.541770
1.610000	22.029000	0.889909	0.539066
1.620000	21.989000	0.891839	0.536150
1.630000	21.944000	0.893763	0.533026
1.640000	21.899000	0.895675	0.529697
1.650000	21.857000	0.897566	0.526167
1.660000	21.822000	0.899428	0.522440
1.670000	21.798000	0.901253	0.518521
1.680000	21.788000	0.903034	0.514414
1.690000	21.792000	0.904762	0.510124
1.700000	21.810000	0.906428	0.505654
1.710000	21.842000	0.908024	0.501008
1.720000	21.883000	0.909543	0.496192
1.730000	21.931000	0.910979	0.491209
1.740000	21.982000	0.912324	0.486066
1.750000	22.033000	0.913573	0.480767
1.760000	22.081000	0.914718	0.475317
1.770000	22.124000	0.915751	0.469721
1.780000	22.160000	0.916667	0.463986
1.790000	22.191000	0.917457	0.458116
1.800000	22.216000	0.918115	0.452117
1.810000	22.236000	0.918634	0.445995
1.820000	22.255000	0.919006	0.439754
1.830000	22.272000	0.919223	0.433401
1.840000	22.289000	0.919279	0.426942
1.850000	22.306000	0.919166	0.420382
1.860000	22.322000	0.918876	0.413728
1.870000	22.336000	0.918403	0.406984
1.880000	22.346000	0.917737	0.400158
1.890000	22.350000	0.916873	0.393255
1.900000	22.345000	0.915801	0.386282
1.910000	22.330000	0.914514	0.379245
1.920000	22.304000	0.913004	0.372149
1.930000	22.267000	0.911266	0.365000
1.940000	22.220000	0.909288	0.357803
1.950000	22.164000	0.907064	0.350566
1.960000	22.103000	0.904585	0.343293
1.970000	22.040000	0.901844	0.335990
1.980000	21.979000	0.898832	0.328665
1.990000	21.923000	0.895544	0.321321
2.000000	21.874000	0.891974	0.313966
2.010000	21.834000	0.888116	0.306604
2.020000	21.803000	0.883964	0.299242
2.030000	21.780000	0.879515	0.291883
2.040000	21.764000	0.874765	0.284534
2.050000	21.750000	0.869709	0.277199
2.060000	21.737000	0.864345	0.269884
2.070000	21.720000	0.858670	0.262594
2.080000	21.696000	0.852683	0.255332
2.090000	21.663000	0.846381	0.248104
2.100000	21.620000	0.839764	0.240914
2.110000	21.567000	0.832831	0.233767
2.120000	21.504000	0.825583	0.226667
2.130000	21.435000	0.818019	0.219618
2.140000	21.361000	0.810140	0.212622
2.150000	21.288000	0.801944	0.205682
2.160000	21.218000	0.793431	0.198804
2.170000	21.154000	0.784603	0.191991
2.180000	21.100000	0.775461	0.185246
2.190000	21.057000	0.766007	0.178575
2.200000	21.025000	0.756244	0.171980
2.210000	21.005000	0.746177	0.165464
2.220000	20.994000	0.735809	0.159030
2.230000	20.992000	0.725145	0.152682
2.240000	20.995000	0.714192	0.146422
2.250000	21.002000	0.702956	0.140252
2.260000	21.010000	0.691445	0.134174
2.270000	21.017000	0.679665	0.128191
2.280000	21.022000	0.667627	0.122304
2.290000	21.026000	0.655338	0.116515
2.300000	21.026000	0.642810	0.110825
2.310000	21.024000	0.630053	0.105235
2.320000	21.019000	0.617079	0.099746
2.330000	21.012000	0.603899	0.094359
2.340000	21.002000	0.590527	0.089074
2.350000	20.989000	0.576977	0.083891
2.360000	20.973000	0.563261	0.078811
2.370000	20.953000	0.549397	0.073833
2.380000	20.928000	0.535398	0.068956
2.390000	20.898000	0.521283	0.064181
2.400000	20.863000	0.507067	0.059507
2.410000	20.825000	0.492756	0.054932
2.420000	20.785000	0.478339	0.050460
2.430000	20.748000	0.463831	0.046088
2.440000	20.717000	0.449253	0.041818
2.450000	20.698000	0.434622	0.037648
2.460000	20.694000	0.419956	0.033578
2.470000	20.711000	0.405273	0.029607
2.480000	20.753000	0.390593	0.025734
2.490000	20.821000	0.375932	0.021958
2.500000	20.916000	0.361310	0.018279
2.510000	21.037000	0.346744	0.014695
2.520000	21.179000	0.332253	0.011206
2.530000	21.336000	0.317854	0.007809
2.540000	21.501000	0.303565	0.004504
2.550000	21.665000	0.289405	0.001290
2.560000	21.819000	0.275390	-0.001836
2.570000	21.954000	0.261540	-0.004873
2.580000	22.062000	0.247872	-0.007825
2.590000	22.138000	0.234404	-0.010693
2.600000	22.179000	0.221153	-0.013477
2.610000	22.185000	0.208137	-0.016181
2.620000	22.158000	0.195374	-0.018807
2.630000	22.103000	0.182881	-0.021355
2.640000	22.028000	0.170676	-0.023828
2.650000	21.941000	0.158777	-0.026228
2.660000	21.850000	0.147200	-0.028558
2.670000	21.765000	0.135964	-0.030819
2.680000	21.692000	0.125083	-0.033015
2.690000	21.637000	0.114537	-0.035142
2.700000	21.604000	0.104325	-0.037202
2.710000	21.592000	0.094456	-0.039196
2.720000	21.601000	0.084939	-0.041126
2.730000	21.626000	0.075784	-0.042992
2.740000	21.662000	0.066997	-0.044797
2.750000	21.704000	0.058587	-0.046541
2.760000	21.745000	0.050561	-0.048225
2.770000	21.779000	0.042926	-0.049851
2.780000	21.803000	0.035687	-0.051419
2.790000	21.814000	0.028850	-0.052930
2.800000	21.811000	0.022421	-0.054385
2.810000	21.794000	0.016404	-0.055785
2.820000	21.768000	0.010804	-0.057129
2.830000	21.735000	0.005624	-0.058419
2.840000	21.701000	0.000868	-0.059655
2.850000	21.671000	-0.003461	-0.060837
2.860000	21.647000	-0.007362	-0.061965
2.870000	21.636000	-0.010832	-0.063040
2.880000	21.638000	-0.013869	-0.064061
2.890000	21.654000	-0.016474	-0.065029
2.900000	21.686000	-0.018644	-0.065943
2.910000	21.731000	-0.020381	-0.066804
2.920000	21.787000	-0.021685	-0.067610
2.930000	21.852000	-0.022557	-0.068361
2.940000	21.922000	-0.022996	-0.069057
2.950000	21.996000	-0.023001	-0.069697
2.960000	22.070000	-0.022569	-0.070281
2.970000	22.144000	-0.021699	-0.070808
2.980000	22.216000	-0.020393	-0.071277
2.990000	22.285000	-0.018650	-0.071688
3.000000	22.350000	-0.016472	-0.072039
3.010000	22.413000	-0.013862	-0.072331
3.020000	22.471000	-0.010823	-0.072561
3.030000	22.523000	-0.007360	-0.072729
3.040000	22.569000	-0.003478	-0.072834
3.050000	22.607000	0.000818	-0.072874
3.060000	22.634000	0.005521	-0.072849
3.070000	22.649000	0.010623	-0.072756
3.080000	22.649000	0.016115	-0.072594
3.090000	22.634000	0.021989	-0.072361
3.100000	22.603000	0.028234	-0.072056
3.110000	22.558000	0.034839	-0.071677
3.120000	22.500000	0.041793	-0.071222
3.130000	22.433000	0.049082	-0.070689
3.140000	22.363000	0.056694	-0.070077
3.150000	22.293000	0.064613	-0.069382
3.160000	22.230000	0.072826	-0.068602
3.170000	22.179000	0.081315	-0.067737
3.180000	22.144000	0.090069	-0.066786
3.190000	22.128000	0.099075	-0.065746
3.200000	22.133000	0.108322	-0.064615
3.210000	22.158000	0.117797	-0.063392
3.220000	22.200000	0.127489	-0.062073
3.230000	22.255000	0.137385	-0.060659
3.240000	22.318000	0.147473	-0.059146
3.250000	22.381000	0.157741	-0.057533
3.260000	22.438000	0.168176	-0.055818
3.270000	22.482000	0.178766	-0.053999
3.280000	22.509000	0.189499	-0.052076
3.290000	22.515000	0.200362	-0.050046
3.300000	22.498000	0.211342	-0.047907
3.310000	22.459000	0.222428	-0.045660
3.320000	22.401000	0.233606	-0.043301
3.330000	22.329000	0.244864	-0.040830
3.340000	22.248000	0.256188	-0.038246
3.350000	22.165000	0.267567	-0.035548
3.360000	22.087000	0.278987	-0.032733
3.370000	22.020000	0.290435	-0.029802
3.380000	21.971000	0.301899	-0.026754
3.390000	21.942000	0.313367	-0.023589
3.400000	21.935000	0.324828	-0.020306
3.410000	21.950000	0.336269	-0.016906
3.420000	21.986000	0.347677	-0.013386
3.430000	22.037000	0.359042	-0.009745
3.440000	22.101000	0.370352	-0.005985
3.450000	22.170000	0.381596	-0.002103
3.460000	22.239000	0.392762	0.001900
3.470000	22.301000	0.403842	0.006024
3.480000	22.353000	0.414826	0.010270
3.490000	22.389000	0.425703	0.014636
3.500000	22.406000	0.436466	0.019123
3.510000	22.404000	0.447104	0.023729
3.520000	22.383000	0.457611	0.028453
3.530000	22.342000	0.467979	0.033296
3.540000	22.285000	0.478199	0.038254
3.550000	22.216000	0.488266	0.043328
3.560000	22.137000	0.498172	0.048515
3.570000	22.054000	0.507911	0.053813
3.580000	21.971000	0.517477	0.059221
3.590000	21.892000	0.526866	0.064736
3.600000	21.823000	0.536071	0.070357
3.610000	21.767000	0.545089	0.076079
3.620000	21.728000	0.553915	0.081902
3.630000	21.709000	0.562545	0.087821
3.640000	21.712000	0.570976	0.093834
3.650000	21.738000	0.579204	0.099937
3.660000	21.787000	0.587222	0.106129
3.670000	21.858000	0.595033	0.112406
3.680000	21.950000	0.602642	0.118766
3.690000	22.058000	0.610051	0.125205
3.700000	22.178000	0.617266	0.131720
3.710000	22.306000	0.624288	0.138307
3.720000	22.436000	0.631123	0.144962
3.730000	22.562000	0.637773	0.151683
3.740000	22.678000	0.644244	0.158464
3.750000	22.779000	0.650538	0.165302
3.760000	22.861000	0.656660	0.172193
3.770000	22.920000	0.662614	0.179133
3.780000	22.955000	0.668404	0.186117
3.790000	22.966000	0.674033	0.193140
3.800000	22.953000	0.679507	0.200198
3.810000	22.919000	0.684828	0.207286
3.820000	22.867000	0.690001	0.214400
3.830000	22.801000	0.695030	0.221533
3.840000	22.726000	0.699919	0.228681
3.850000	22.644000	0.704673	0.235839
3.860000	22.561000	0.709296	0.243001
3.870000	22.480000	0.713791	0.250161
3.880000	22.401000	0.718163	0.257315
3.890000	22.328000	0.722398	0.264458
3.900000	22.260000	0.726496	0.271586
3.910000	22.197000	0.730459	0.278693
3.920000	22.140000	0.734289	0.285774
3.930000	22.086000	0.737990	0.292824
3.940000	22.037000	0.741565	0.299837
3.950000	21.993000	0.745018	0.306809
3.960000	21.953000	0.748352	0.313733
3.970000	21.919000	0.751571	0.320606
3.980000	21.892000	0.754681	0.327421
3.990000	21.875000	0.757685	0.334173
4.000000	21.867000	0.760588	0.340858
4.010000	21.872000	0.763397	0.347471
4.020000	21.889000	0.766116	0.354005
4.030000	21.917000	0.768751	0.360457
4.040000	21.955000	0.771309	0.366821
4.050000	22.001000	0.773795	0.373092
4.060000	22.051000	0.776217	0.379266
4.070000	22.100000	0.778581	0.385337
4.080000	22.144000	0.780894	0.391300
4.090000	22.177000	0.783165	0.397152
4.100000	22.195000	0.785400	0.402886
4.110000	22.196000	0.787608	0.408499
4.120000	22.176000	0.789792	0.413987
4.130000	22.135000	0.791955	0.419345
4.140000	22.074000	0.794097	0.424570
4.150000	21.996000	0.796221	0.429657
4.160000	21.905000	0.798327	0.434602
4.170000	21.804000	0.800415	0.439401
4.180000	21.700000	0.802488	0.444050
4.190000	21.598000	0.804546	0.448546
4.200000	21.502000	0.806589	0.452884
4.210000	21.417000	0.808618	0.457063
4.220000	21.346000	0.810633	0.461078
4.230000	21.290000	0.812634	0.464928
4.240000	21.249000	0.814621	0.468608
4.250000	21.224000	0.816594	0.472117
4.260000	21.212000	0.818552	0.475451
4.270000	21.211000	0.820496	0.478610
4.280000	21.219000	0.822424	0.481590
4.290000	21.233000	0.824335	0.484390
4.300000	21.251000	0.826230	0.487008
4.310000	21.272000	0.828107	0.489442
4.320000	21.293000	0.829973	0.491691
4.330000	21.315000	0.831833	0.493753
4.340000	21.335000	0.833688	0.495627
4.350000	21.353000	0.835540	0.497311
4.360000	21.368000	0.837388	0.498804
4.370000	21.379000	0.839234	0.500106
4.380000	21.382000	0.841075	0.501215
4.390000	21.376000	0.842910	0.502133
4.400000	21.358000	0.844738	0.502857
4.410000	21.324000	0.846554	0.503388
4.420000	21.273000	0.848356	0.503726
4.430000	21.202000	0.850139	0.503872
4.440000	21.111000	0.851897	0.503826
4.450000	21.000000	0.853625	0.503588
4.460000	20.872000	0.855317	0.503159
4.470000	20.730000	0.856965	0.502541
4.480000	20.582000	0.858561	0.501735
4.490000	20.433000	0.860096	0.500741
4.500000	20.292000	0.861562	0.499562
4.510000	20.169000	0.862945	0.498199
4.520000	20.069000	0.864228	0.496654
4.530000	20.001000	0.865411	0.494927
4.540000	19.970000	0.866489	0.493021
4.550000	19.978000	0.867462	0.490939
4.560000	20.026000	0.868327	0.488682
4.570000	20.110000	0.869084	0.486253
4.580000	20.227000	0.869732	0.483654
4.590000	20.368000	0.870268	0.480887
4.600000	20.524000	0.870693	0.477956
4.610000	20.685000	0.871007	0.474864
4.620000	20.841000	0.871208	0.471612
4.630000	20.981000	0.871298	0.468205
4.640000	21.098000	0.871276	0.464644
4.650000	21.185000	0.871142	0.460934
4.660000	21.237000	0.870899	0.457077
4.670000	21.254000	0.870545	0.453078
4.680000	21.236000	0.870084	0.448939
4.690000	21.188000	0.869516	0.444664
4.700000	21.114000	0.868837	0.440258
4.710000	21.022000	0.868028	0.435722
4.720000	20.919000	0.867076	0.431063
4.730000	20.814000	0.865973	0.426282
4.740000	20.715000	0.864711	0.421385
4.750000	20.629000	0.863284	0.416376
4.760000	20.561000	0.861686	0.411258
4.770000	20.516000	0.859910	0.406037
4.780000	20.495000	0.857951	0.400715
4.790000	20.499000	0.855805	0.395297
4.800000	20.528000	0.853469	0.389788
4.810000	20.577000	0.850940	0.384191
4.820000	20.644000	0.848214	0.378511
4.830000	20.722000	0.845291	0.372751
4.840000	20.808000	0.842170	0.366918
4.850000	20.894000	0.838851	0.361014
4.860000	20.975000	0.835333	0.355043
4.870000	21.045000	0.831617	0.349012
4.880000	21.101000	0.827707	0.342923
4.890000	21.137000	0.823603	0.336781
4.900000	21.153000	0.819306	0.330590
4.910000	21.146000	0.814813	0.324354
4.920000	21.118000	0.810117	0.318077
4.930000	21.071000	0.805218	0.311764
4.940000	21.008000	0.800111	0.305420
4.950000	20.935000	0.794794	0.299047
4.960000	20.857000	0.789266	0.292652
4.970000	20.781000	0.783526	0.286236
4.980000	20.714000	0.777572	0.279805
4.990000	20.661000	0.771404	0.273362
5.000000	20.629000	0.765024	0.266912
5.010000	20.621000	0.758432	0.260457
5.020000	20.639000	0.751629	0.254003
5.030000	20.683000	0.744618	0.247552
5.040000	20.752000	0.737401	0.241108
5.050000	20.842000	0.729981	0.234675
5.060000	20.947000	0.722363	0.228256
5.070000	21.059000	0.714550	0.221854
5.080000	21.173000	0.706547	0.215474
5.090000	21.280000	0.698359	0.209118
5.100000	21.375000	0.689993	0.202789
5.110000	21.451000	0.681455	0.196491
5.120000	21.505000	0.672753	0.190227
5.130000	21.537000	0.663897	0.183999
5.140000	21.546000	0.654894	0.177810
5.150000	21.537000	0.645747	0.171663
5.160000	21.512000	0.636463	0.165561
5.170000	21.478000	0.627046	0.159506
5.180000	21.441000	0.617502	0.153501
5.190000	21.406000	0.607836	0.147549
5.200000	21.377000	0.598053	0.141652
5.210000	21.358000	0.588160	0.135812
5.220000	21.349000	0.578163	0.130033
5.230000	21.351000	0.568067	0.124315
5.240000	21.361000	0.557878	0.118661
5.250000	21.375000	0.547602	0.113073
5.260000	21.387000	0.537247	0.107552
5.270000	21.394000	0.526817	0.102102
5.280000	21.391000	0.516320	0.096722
5.290000	21.374000	0.505763	0.091415
5.300000	21.341000	0.495151	0.086182
5.310000	21.294000	0.484492	0.081025
5.320000	21.234000	0.473794	0.075944
5.330000	21.165000	0.463061	0.070942
5.340000	21.093000	0.452303	0.066018
