# Time (s), Wind Speed (m/s), Blade Displacement (m), Tower Displacement (m)
0.000000	13.981000	0.000000	0.000000
0.010000	14.006000	0.000506	0.000000
0.020000	14.033000	0.002015	0.000000
0.030000	14.061000	0.004514	0.000001
0.040000	14.088000	0.007989	0.000004
0.050000	14.116000	0.012426	0.000010
0.060000	14.143000	0.017808	0.000019
0.070000	14.173000	0.024119	0.000035
0.080000	14.205000	0.031339	0.000059
0.090000	14.241000	0.039451	0.000093
0.100000	14.283000	0.048436	0.000140
0.110000	14.330000	0.058276	0.000202
0.120000	14.383000	0.068951	0.000283
0.130000	14.438000	0.080442	0.000387
0.140000	14.495000	0.092730	0.000515
0.150000	14.549000	0.105794	0.000673
0.160000	14.595000	0.119617	0.000864
0.170000	14.631000	0.134174	0.001093
0.180000	14.653000	0.149436	0.001363
0.190000	14.657000	0.165374	0.001679
0.200000	14.642000	0.181957	0.002047
0.210000	14.610000	0.199152	0.002471
0.220000	14.562000	0.216924	0.002955
0.230000	14.502000	0.235238	0.003505
0.240000	14.436000	0.254056	0.004126
0.250000	14.370000	0.273338	0.004824
0.260000	14.310000	0.293044	0.005604
0.270000	14.264000	0.313131	0.006470
0.280000	14.238000	0.333554	0.007430
0.290000	14.235000	0.354283	0.008486
0.300000	14.259000	0.375292	0.009647
0.310000	14.309000	0.396557	0.010916
0.320000	14.385000	0.418056	0.012300
0.330000	14.482000	0.439766	0.013805
0.340000	14.597000	0.461669	0.015436
0.350000	14.724000	0.483745	0.017197
0.360000	14.856000	0.505975	0.019096
0.370000	14.987000	0.528343	0.021135
0.380000	15.112000	0.550834	0.023321
0.390000	15.227000	0.573432	0.025659
0.400000	15.327000	0.596125	0.028152
0.410000	15.412000	0.618900	0.030806
0.420000	15.479000	0.641746	0.033626
0.430000	15.529000	0.664654	0.036615
0.440000	15.561000	0.687617	0.039778
0.450000	15.576000	0.710611	0.043118
0.460000	15.574000	0.733601	0.046641
0.470000	15.556000	0.756546	0.050350
0.480000	15.520000	0.779411	0.054249
0.490000	15.466000	0.802158	0.058343
0.500000	15.394000	0.824754	0.062635
0.510000	15.304000	0.847162	0.067128
0.520000	15.197000	0.869349	0.071824
0.530000	15.073000	0.891283	0.076727
0.540000	14.937000	0.912930	0.081839
0.550000	14.792000	0.934259	0.087161
0.560000	14.645000	0.955240	0.092695
0.570000	14.500000	0.975843	0.098443
0.580000	14.367000	0.996039	0.104405
0.590000	14.252000	1.015799	0.110583
0.600000	14.160000	1.035096	0.116977
0.610000	14.098000	1.053903	0.123586
0.620000	14.069000	1.072195	0.130411
0.630000	14.072000	1.089945	0.137452
0.640000	14.106000	1.107143	0.144706
0.650000	14.168000	1.123824	0.152170
0.660000	14.250000	1.139994	0.159844
0.670000	14.345000	1.155656	0.167725
0.680000	14.444000	1.170810	0.175812
0.690000	14.539000	1.185461	0.184104
0.700000	14.622000	1.199609	0.192597
0.710000	14.687000	1.213258	0.201288
0.720000	14.730000	1.226410	0.210175
0.730000	14.749000	1.239071	0.219255
0.740000	14.747000	1.251242	0.228522
0.750000	14.726000	1.262929	0.237972
0.760000	14.692000	1.274136	0.247601
0.770000	14.649000	1.284868	0.257404
0.780000	14.606000	1.295130	0.267375
0.790000	14.567000	1.304926	0.277507
0.800000	14.538000	1.314264	0.287796
0.810000	14.519000	1.323149	0.298233
0.820000	14.513000	1.331588	0.308811
0.830000	14.517000	1.339586	0.319524
0.840000	14.529000	1.347152	0.330363
0.850000	14.542000	1.354293	0.341320
0.860000	14.552000	1.361016	0.352386
0.870000	14.554000	1.367329	0.363552
0.880000	14.543000	1.373240	0.374809
0.890000	14.516000	1.378759	0.386147
0.900000	14.472000	1.383893	0.397564
0.910000	14.413000	1.388650	0.409050
0.920000	14.341000	1.393037	0.420596
0.930000	14.262000	1.397066	0.432193
0.940000	14.180000	1.400745	0.443831
0.950000	14.104000	1.404086	0.455500
0.960000	14.037000	1.407100	0.467192
0.970000	13.986000	1.409801	0.478896
0.980000	13.952000	1.412200	0.490603
0.990000	13.938000	1.414312	0.502303
1.000000	13.942000	1.416153	0.513986
1.010000	13.962000	1.417736	0.525644
1.020000	13.993000	1.419080	0.537264
1.030000	14.029000	1.420200	0.548839
1.040000	14.067000	1.421114	0.560358
1.050000	14.100000	1.421842	0.571810
1.060000	14.126000	1.422402	0.583186
1.070000	14.143000	1.422815	0.594476
1.080000	14.151000	1.423101	0.605670
1.090000	14.153000	1.423283	0.616756
1.100000	14.151000	1.423382	0.627726
1.110000	14.152000	1.423422	0.638568
1.120000	14.160000	1.423427	0.649273
1.130000	14.181000	1.423422	0.659829
1.140000	14.217000	1.423432	0.670227
1.150000	14.270000	1.423478	0.680458
1.160000	14.342000	1.423579	0.690516
1.170000	14.427000	1.423756	0.700391
1.180000	14.523000	1.424031	0.710074
1.190000	14.623000	1.424422	0.719556
1.200000	14.718000	1.424945	0.728828
1.210000	14.800000	1.425616	0.737881
1.220000	14.863000	1.426445	0.746708
1.230000	14.901000	1.427444	0.755301
1.240000	14.908000	1.428621	0.763652
1.250000	14.885000	1.429981	0.771754
1.260000	14.831000	1.431529	0.779600
1.270000	14.752000	1.433267	0.787184
1.280000	14.652000	1.435193	0.794499
1.290000	14.538000	1.437306	0.801540
1.300000	14.421000	1.439602	0.808301
1.310000	14.306000	1.442074	0.814776
1.320000	14.201000	1.444713	0.820962
1.330000	14.110000	1.447509	0.826852
1.340000	14.038000	1.450449	0.832443
1.350000	13.985000	1.453517	0.837732
1.360000	13.948000	1.456698	0.842713
1.370000	13.925000	1.459972	0.847384
1.380000	13.910000	1.463330	0.851743
1.390000	13.897000	1.466801	0.855785
1.400000	13.881000	1.470380	0.859508
1.410000	13.857000	1.474058	0.862910
1.420000	13.820000	1.477828	0.865989
1.430000	13.770000	1.481678	0.868744
1.440000	13.705000	1.485599	0.871171
1.450000	13.628000	1.489579	0.873272
1.460000	13.543000	1.493606	0.875044
1.470000	13.452000	1.497669	0.876488
1.480000	13.362000	1.501755	0.877604
1.490000	13.277000	1.505849	0.878391
1.500000	13.201000	1.509937	0.878851
1.510000	13.138000	1.514004	0.878984
1.520000	13.087000	1.518036	0.878793
1.530000	13.050000	1.522014	0.878278
1.540000	13.025000	1.525924	0.877441
1.550000	13.009000	1.529747	0.876286
1.560000	12.999000	1.533485	0.874814
1.570000	12.991000	1.537138	0.873026
1.580000	12.981000	1.540697	0.870927
1.590000	12.967000	1.544149	0.868518
1.600000	12.948000	1.547485	0.865803
1.610000	12.922000	1.550694	0.862786
1.620000	12.892000	1.553766	0.859470
1.630000	12.858000	1.556691	0.855859
1.640000	12.824000	1.559459	0.851957
1.650000	12.792000	1.562061	0.847769
1.660000	12.766000	1.564486	0.843299
1.670000	12.747000	1.566726	0.838552
1.680000	12.739000	1.568772	0.833532
1.690000	12.742000	1.570614	0.828247
1.700000	12.755000	1.572244	0.822700
1.710000	12.778000	1.573653	0.816897
1.720000	12.809000	1.574833	0.810845
1.730000	12.844000	1.575778	0.804549
1.740000	12.882000	1.576492	0.798015
1.750000	12.919000	1.576973	0.791248
1.760000	12.954000	1.577221	0.784256
1.770000	12.986000	1.577232	0.777044
1.780000	13.013000	1.577005	0.769620
1.790000	13.035000	1.576537	0.761990
1.800000	13.053000	1.575825	0.754161
1.810000	13.068000	1.574866	0.746139
1.820000	13.081000	1.573657	0.737932
1.830000	13.094000	1.572193	0.729546
1.840000	13.106000	1.570471	0.720989
1.850000	13.118000	1.568486	0.712267
1.860000	13.130000	1.566235	0.703388
1.870000	13.140000	1.563712	0.694359
1.880000	13.147000	1.560913	0.685187
1.890000	13.149000	1.557832	0.675881
1.900000	13.145000	1.554464	0.666446
1.910000	13.134000	1.550804	0.656892
1.920000	13.114000	1.546844	0.647225
1.930000	13.086000	1.542579	0.637454
1.940000	13.050000	1.538003	0.627586
1.950000	13.008000	1.533109	0.617627
1.960000	12.962000	1.527892	0.607584
1.970000	12.915000	1.522342	0.597464
1.980000	12.869000	1.516452	0.587275
1.990000	12.827000	1.510214	0.577026
2.000000	12.790000	1.503621	0.566724
2.010000	12.759000	1.496669	0.556377
2.020000	12.736000	1.489352	0.545992
2.030000	12.719000	1.481666	0.535576
2.040000	12.706000	1.473608	0.525137
2.050000	12.696000	1.465173	0.514682
2.060000	12.685000	1.456362	0.504217
2.070000	12.672000	1.447171	0.493750
2.080000	12.654000	1.437601	0.483286
2.090000	12.629000	1.427652	0.472832
2.100000	12.597000	1.417324	0.462394
2.110000	12.556000	1.406619	0.451978
2.120000	12.509000	1.395540	0.441591
2.130000	12.457000	1.384090	0.431238
2.140000	12.402000	1.372272	0.420924
2.150000	12.347000	1.360091	0.410655
2.160000	12.294000	1.347552	0.400436
2.170000	12.247000	1.334662	0.390273
2.180000	12.206000	1.321427	0.380169
2.190000	12.173000	1.307854	0.370131
2.200000	12.149000	1.293951	0.360163
2.210000	12.134000	1.279713	0.350268
2.220000	12.126000	1.265148	0.340450
2.230000	12.123000	1.250265	0.330716
2.240000	12.125000	1.235077	0.321069
2.250000	12.130000	1.219594	0.311514
2.260000	12.135000	1.203827	0.302056
2.270000	12.140000	1.187788	0.292698
2.280000	12.144000	1.171489	0.283443
2.290000	12.146000	1.154942	0.274297
2.300000	12.146000	1.138159	0.265261
2.310000	12.144000	1.121153	0.256340
2.320000	12.140000	1.103937	0.247536
2.330000	12.134000	1.086525	0.238851
2.340000	12.127000	1.068929	0.230288
2.350000	12.117000	1.051163	0.221851
2.360000	12.105000	1.033242	0.213539
2.370000	12.089000	1.015179	0.205356
2.380000	12.070000	0.996990	0.197303
2.390000	12.048000	0.978688	0.189381
2.400000	12.021000	0.960289	0.181591
2.410000	11.993000	0.941808	0.173935
2.420000	11.963000	0.923261	0.166412
2.430000	11.935000	0.904664	0.159025
2.440000	11.912000	0.886033	0.151772
2.450000	11.897000	0.867383	0.144653
2.460000	11.894000	0.848733	0.137670
2.470000	11.907000	0.830095	0.130821
2.480000	11.937000	0.811479	0.124109
2.490000	11.988000	0.792911	0.117535
2.500000	12.059000	0.774421	0.111100
2.510000	12.148000	0.756036	0.104803
2.520000	12.254000	0.737784	0.098645
2.530000	12.371000	0.719689	0.092625
2.540000	12.493000	0.701775	0.086745
2.550000	12.615000	0.684065	0.081004
2.560000	12.730000	0.666581	0.075402
2.570000	12.830000	0.649343	0.069939
2.580000	12.910000	0.632371	0.064614
2.590000	12.966000	0.615682	0.059427
2.600000	12.997000	0.599294	0.054378
2.610000	13.001000	0.583221	0.049467
2.620000	12.981000	0.567479	0.044691
2.630000	12.940000	0.552080	0.040052
2.640000	12.884000	0.537036	0.035548
2.650000	12.818000	0.522359	0.031177
2.660000	12.751000	0.508057	0.026941
2.670000	12.687000	0.494140	0.022836
2.680000	12.633000	0.480613	0.018862
2.690000	12.592000	0.467483	0.015018
2.700000	12.566000	0.454755	0.011303
2.710000	12.558000	0.442431	0.007715
2.720000	12.564000	0.430507	0.004257
2.730000	12.582000	0.418986	0.000928
2.740000	12.609000	0.407874	-0.002272
2.750000	12.640000	0.397175	-0.005344
2.760000	12.670000	0.386894	-0.008288
2.770000	12.696000	0.377037	-0.011106
2.780000	12.713000	0.367607	-0.013797
2.790000	12.721000	0.358606	-0.016362
2.800000	12.718000	0.350039	-0.018802
2.810000	12.706000	0.341907	-0.021116
2.820000	12.686000	0.334213	-0.023307
2.830000	12.661000	0.326956	-0.025373
2.840000	12.636000	0.320140	-0.027316
2.850000	12.613000	0.313763	-0.029135
2.860000	12.595000	0.307825	-0.030831
2.870000	12.586000	0.302327	-0.032404
2.880000	12.588000	0.297267	-0.033855
2.890000	12.600000	0.292642	-0.035183
2.900000	12.623000	0.288452	-0.036388
2.910000	12.656000	0.284694	-0.037472
2.920000	12.698000	0.281363	-0.038433
2.930000	12.746000	0.278458	-0.039271
2.940000	12.798000	0.275973	-0.039988
2.950000	12.853000	0.273929	-0.040582
2.960000	12.908000	0.272337	-0.041054
2.970000	12.963000	0.271200	-0.041404
2.980000	13.016000	0.270518	-0.041631
2.990000	13.067000	0.270291	-0.041737
3.000000	13.116000	0.270517	-0.041721
3.010000	13.162000	0.271194	-0.041583
3.020000	13.205000	0.272321	-0.041324
3.030000	13.244000	0.273892	-0.040943
3.040000	13.278000	0.275903	-0.040440
3.050000	13.306000	0.278349	-0.039815
3.060000	13.326000	0.281224	-0.039069
3.070000	13.337000	0.284521	-0.038200
3.080000	13.337000	0.288231	-0.037209
3.090000	13.325000	0.292346	-0.036095
3.100000	13.302000	0.296856	-0.034859
3.110000	13.268000	0.301751	-0.033499
3.120000	13.225000	0.307019	-0.032016
3.130000	13.175000	0.312648	-0.030409
3.140000	13.122000	0.318625	-0.028678
3.150000	13.069000	0.324936	-0.026822
3.160000	13.022000	0.331567	-0.024841
3.170000	12.984000	0.338501	-0.022734
3.180000	12.958000	0.345722	-0.020501
3.190000	12.946000	0.353214	-0.018141
3.200000	12.949000	0.360957	-0.015653
3.210000	12.967000	0.368942	-0.013038
3.220000	12.999000	0.377187	-0.010296
3.230000	13.039000	0.385683	-0.007428
3.240000	13.086000	0.394418	-0.004433
3.250000	13.132000	0.403381	-0.001312
3.260000	13.174000	0.412558	0.001936
3.270000	13.207000	0.421938	0.005311
3.280000	13.227000	0.431510	0.008812
3.290000	13.231000	0.441260	0.012440
3.300000	13.218000	0.451178	0.016193
3.310000	13.189000	0.461252	0.020073
3.320000	13.145000	0.471469	0.024077
3.330000	13.091000	0.481819	0.028206
3.340000	13.030000	0.492288	0.032460
3.350000	12.968000	0.502867	0.036837
3.360000	12.910000	0.513542	0.041337
3.370000	12.860000	0.524303	0.045959
3.380000	12.823000	0.535137	0.050702
3.390000	12.801000	0.546034	0.055565
3.400000	12.796000	0.556981	0.060548
3.410000	12.807000	0.567968	0.065649
3.420000	12.833000	0.578982	0.070867
3.430000	12.871000	0.590013	0.076200
3.440000	12.918000	0.601050	0.081648
3.450000	12.969000	0.612080	0.087209
3.460000	13.020000	0.623092	0.092882
3.470000	13.066000	0.634076	0.098665
3.480000	13.104000	0.645020	0.104556
3.490000	13.131000	0.655928	0.110554
3.500000	13.144000	0.666828	0.116657
3.510000	13.142000	0.677711	0.122861
3.520000	13.125000	0.688565	0.129165
3.530000	13.095000	0.699379	0.135566
3.540000	13.052000	0.710143	0.142061
3.550000	13.000000	0.720849	0.148648
3.560000	12.941000	0.731486	0.155323
3.570000	12.879000	0.742049	0.162085
3.580000	12.817000	0.752530	0.168930
3.590000	12.758000	0.762923	0.175855
3.600000	12.706000	0.773222	0.182858
3.610000	12.664000	0.783424	0.189934
3.620000	12.635000	0.793523	0.197081
3.630000	12.621000	0.803518	0.204296
3.640000	12.622000	0.813406	0.211575
3.650000	12.641000	0.823185	0.218914
3.660000	12.678000	0.832855	0.226311
3.670000	12.730000	0.842416	0.233761
3.680000	12.798000	0.851869	0.241261
3.690000	12.878000	0.861215	0.248807
3.700000	12.968000	0.870456	0.256396
3.710000	13.063000	0.879597	0.264023
3.720000	13.159000	0.888640	0.271684
3.730000	13.252000	0.897591	0.279376
3.740000	13.338000	0.906455	0.287094
3.750000	13.413000	0.915239	0.294834
3.760000	13.474000	0.923948	0.302592
3.770000	13.518000	0.932603	0.310364
3.780000	13.544000	0.941226	0.318145
3.790000	13.551000	0.949815	0.325932
3.800000	13.541000	0.958363	0.333719
3.810000	13.516000	0.966868	0.341502
3.820000	13.477000	0.975325	0.349275
3.830000	13.427000	0.983729	0.357035
3.840000	13.371000	0.992076	0.364777
3.850000	13.310000	1.000362	0.372495
3.860000	13.248000	1.008581	0.380186
3.870000	13.186000	1.016731	0.387845
3.880000	13.128000	1.024806	0.395468
3.890000	13.073000	1.032801	0.403050
3.900000	13.022000	1.040713	0.410586
3.910000	12.974000	1.048537	0.418074
3.920000	12.931000	1.056269	0.425507
3.930000	12.891000	1.063903	0.432883
3.940000	12.854000	1.071436	0.440197
3.950000	12.821000	1.078863	0.447444
3.960000	12.790000	1.086179	0.454621
3.970000	12.765000	1.093380	0.461724
3.980000	12.744000	1.100461	0.468748
3.990000	12.731000	1.107418	0.475690
4.000000	12.725000	1.114247	0.482545
4.010000	12.728000	1.120942	0.489311
4.020000	12.740000	1.127500	0.495983
4.030000	12.761000	1.133933	0.502557
4.040000	12.789000	1.140273	0.509029
4.050000	12.823000	1.146523	0.515395
4.060000	12.859000	1.152683	0.521651
4.070000	12.895000	1.158754	0.527793
4.080000	12.927000	1.164735	0.533817
4.090000	12.952000	1.170626	0.539719
4.100000	12.965000	1.176428	0.545497
4.110000	12.965000	1.182138	0.551145
4.120000	12.949000	1.187756	0.556661
4.130000	12.919000	1.193279	0.562041
4.140000	12.873000	1.198706	0.567283
4.150000	12.814000	1.204033	0.572383
4.160000	12.746000	1.209259	0.577338
4.170000	12.671000	1.214380	0.582145
4.180000	12.593000	1.219392	0.586803
4.190000	12.516000	1.224291	0.591307
4.200000	12.445000	1.229073	0.595656
4.210000	12.381000	1.233733	0.599847
4.220000	12.327000	1.238266	0.603877
4.230000	12.285000	1.242667	0.607746
4.240000	12.254000	1.246929	0.611450
4.250000	12.235000	1.251047	0.614988
4.260000	12.225000	1.255014	0.618357
4.270000	12.224000	1.258822	0.621557
4.280000	12.230000	1.262465	0.624585
4.290000	12.240000	1.265934	0.627440
4.300000	12.253000	1.269222	0.630121
4.310000	12.268000	1.272334	0.632626
4.320000	12.283000	1.275299	0.634954
4.330000	12.299000	1.278122	0.637103
4.340000	12.314000	1.280807	0.639073
4.350000	12.327000	1.283355	0.640862
4.360000	12.337000	1.285769	0.642469
4.370000	12.345000	1.288050	0.643894
4.380000	12.347000	1.290196	0.645137
4.390000	12.342000	1.292206	0.646196
4.400000	12.328000	1.294079	0.647071
4.410000	12.302000	1.295811	0.647763
4.420000	12.264000	1.297400	0.648270
4.430000	12.210000	1.298839	0.648594
4.440000	12.142000	1.300123	0.648734
4.450000	12.059000	1.301247	0.648690
4.460000	11.963000	1.302202	0.648463
4.470000	11.857000	1.302979	0.648053
4.480000	11.746000	1.303571	0.647462
4.490000	11.635000	1.303967	0.646690
4.500000	11.530000	1.304155	0.645737
4.510000	11.438000	1.304125	0.644605
4.520000	11.363000	1.303846	0.643295
4.530000	11.312000	1.303310	0.641807
4.540000	11.289000	1.302523	0.640143
4.550000	11.294000	1.301494	0.638304
4.560000	11.329000	1.300228	0.636292
4.570000	11.392000	1.298736	0.634107
4.580000	11.479000	1.297025	0.631753
4.590000	11.583000	1.295104	0.629229
4.600000	11.699000	1.292983	0.626539
4.610000	11.819000	1.290673	0.623684
4.620000	11.934000	1.288182	0.620665
4.630000	12.038000	1.285522	0.617485
4.640000	12.125000	1.282704	0.614145
4.650000	12.189000	1.279740	0.610648
4.660000	12.228000	1.276641	0.606996
4.670000	12.240000	1.273419	0.603191
4.680000	12.227000	1.270088	0.599235
4.690000	12.190000	1.266661	0.595131
4.700000	12.135000	1.263140	0.590881
4.710000	12.066000	1.259490	0.586489
4.720000	11.989000	1.255700	0.581957
4.730000	11.911000	1.251762	0.577288
4.740000	11.837000	1.247669	0.572485
4.750000	11.773000	1.243417	0.567552
4.760000	11.722000	1.239001	0.562492
4.770000	11.688000	1.234420	0.557307
4.780000	11.672000	1.229672	0.552001
4.790000	11.675000	1.224757	0.546578
4.800000	11.695000	1.219676	0.541040
4.810000	11.732000	1.214432	0.535391
4.820000	11.781000	1.209028	0.529635
4.830000	11.839000	1.203470	0.523775
4.840000	11.903000	1.197764	0.517814
4.850000	11.966000	1.191917	0.511757
4.860000	12.026000	1.185938	0.505608
4.870000	12.079000	1.179837	0.499368
4.880000	12.120000	1.173626	0.493044
4.890000	12.147000	1.167318	0.486638
4.900000	12.158000	1.160915	0.480155
4.910000	12.153000	1.154412	0.473598
4.920000	12.132000	1.147804	0.466971
4.930000	12.096000	1.141090	0.460278
4.940000	12.049000	1.134266	0.453523
4.950000	11.994000	1.127331	0.446709
4.960000	11.936000	1.120284	0.439841
4.970000	11.879000	1.113123	0.432923
4.980000	11.829000	1.105848	0.425957
4.990000	11.790000	1.098460	0.418949
5.000000	11.765000	1.090960	0.411903
5.010000	11.759000	1.083349	0.404822
5.020000	11.772000	1.075629	0.397710
5.030000	11.805000	1.067803	0.390573
5.040000	11.856000	1.059873	0.383413
5.050000	11.923000	1.051845	0.376234
5.060000	12.000000	1.043721	0.369043
5.070000	12.084000	1.035508	0.361841
5.080000	12.168000	1.027210	0.354634
5.090000	12.248000	1.018833	0.347426
5.100000	12.318000	1.010387	0.340220
5.110000	12.374000	1.001901	0.333022
5.120000	12.414000	0.993387	0.325833
5.130000	12.438000	0.984850	0.318658
5.140000	12.445000	0.976295	0.311500
5.150000	12.437000	0.967728	0.304364
5.160000	12.419000	0.959152	0.297252
5.170000	12.393000	0.950571	0.290170
5.180000	12.365000	0.941988	0.283119
5.190000	12.339000	0.933406	0.276104
5.200000	12.317000	0.924828	0.269129
5.210000	12.303000	0.916255	0.262197
5.220000	12.296000	0.907689	0.255311
5.230000	12.297000	0.899131	0.248476
5.240000	12.304000	0.890581	0.241694
5.250000	12.314000	0.882039	0.234970
5.260000	12.323000	0.873506	0.228307
5.270000	12.328000	0.864980	0.221708
5.280000	12.325000	0.856459	0.215177
5.290000	12.312000	0.847944	0.208717
5.300000	12.288000	0.839430	0.202331
5.310000	12.252000	0.830916	0.196024
5.320000	12.207000	0.822396	0.189798
5.330000	12.155000	0.813864	0.183654
5.340000	12.102000	0.805321	0.177596
5.350000	12.051000	0.796770	0.171628
5.360000	12.007000	0.788213	0.165750
